55069,55373,54365,54621,54717,53917,54317,54253,53453,54157,54061,53261,53965,54061,53357,53725,53837,53132,53661,53052,52684,52812,52284,51580,52076,51596,50892,51260,50972,50284,50972,50988,50428,51100,50844,50444,51212,50924,50636,51596,50972,50700,51420,51164,50860,51804,51260,50828,51404,51036,50764,51596,50700,51052,51468,50908,50828,51500,50892,51100,51500,50652,50700,51276,50556,50796,50828,50412,51052,51596,51404,52284,53709,53677,55661,57069,57518,59566,61150,61599,63183,63263,62831,62831,62879,63311,63343,61406,58798,57261,56205,54093,53869,53196,52236,52508,52940,52556,53725,54173,53709,54717,54813,54349,54973,55021,53981,54461,54237,52924,53581,52764,51788,52412,51804,51212,52012,51724,51132,52412,52396,52396,53405,53597,53148,54221,53869,53805,54365,54029,53597,53965,53196,52508,52908,52124,51420,51596,50892,50524,50876,50444,50012,50796,50316,50460,51100,50668,50508,51084,50556,50668,51004,50668,50940,51436,51036,51164,51340,50700,50716,51308,50668,50828,51292,50636,50876,51004,50364,50652,51004,50588,50764,50204,49964,50188,49724,49756,50316,49580,49724,50156,49644,50140,50700,50076,50316,50700,50076,50524,51276,50524,51116,52060,51900,52860,54349,54493,56093,57598,58014,59886,61150,61342,62687,62911,63167,62895,62959,62943,62927,63167,63023,62767,62703,60526,60094,59246,57742,57181,56877,55133,55309,54893,54301,54797,54637,54493,55533,56157,55517,57229,57742,57053,57358,57422,56141,56013,55661,53805,54189,53917,51948,52204,51932,50620,52860,54317,53501,54813,54893,53645,56381,58654,58462,61887,63455,62959,63439,63167,63023,62975,62831,62911,63215,63279,63183,63215,62959,63007,62991,62991,63023,62911,63439,63311,63407,62943,63343,63023,63183,63375,63183,62879,63167,63183,62895,63215,63375,63359,63007,62991,62863,63375,63007,59982,58206,56365,50764,47899,47195,43962,43290,43866,42778,43418,45659,45803,46859,49340,49452,51308,53645,53485,55437,57341,56653,57822,59838,58654,59054,61519,59342,60830,60126,57902,58990,57502,55245,56413,56029,54957,55693,57934,58734,61807,63247,63167,63055,62943,63295,62831,62879,63039,62831,63007,63135,62815,62863,63167,63295,62943,63167,63263,62911,63151,63007,63343,63391,63391,63247,62799,63439,63327,63151,62879,62943,63167,63151,63199,63167,63055,63007,63423,63327,63327,62959,63023,62927,62911,62895,63167,62959,62831,62959,63135,63007,63167,63119,63247,62367,61631,58990,57229,55821,53901,51884,52076,49836,48235,48955,48395,48027,49131,48635,48699,50060,49708,50284,52188,51452,51212,52668,52412,52540,53581,52508,52044,52876,52588,52220,53325,52188,53052,54829,52940,53293,54029,54157,54333,55277,54365,55005,56141,55837,57053,57934,57005,58030,58990,57998,59742,60942,59902,60638,61839,60590,60894,61519,59918,60846,60990,59246,60014,60206,58990,60046,60110,58158,59678,59982,58366,60126,60318,59086,60382,60734,59806,61118,61839,60718,62351,62767,61855,63327,63151,63087,62975,62799,62879,63247,63231,63183,63263,63119,63183,62943,63199,63279,63119,62911,63119,63087,63167,63167,63407,62847,63167,62799,63039,62943,62927,63247,62799,62991,63327,62799,62863,63071,63183,63279,63119,62943,63071,63135,62863,62863,62927,62927,63071,62991,63119,63199,62911,62911,62863,62943,62943,62991,62911,63327,62863,63119,62975,62911,62895,63167,62815,63055,63247,63231,63151,63023,63007,62943,63103,63327,62927,63231,62927,63279,63167,63327,63439,63023,63231,62879,63135,62735,63071,63327,62895,63199,62927,63295,62895,62815,62895,63231,63007,62879,62863,62783,62959,62911,63055,62927,63119,62879,63039,63039,62895,62943,63423,62959,63375,62911,63119,63279,62991,62911,63407,63327,63407,62879,63183,62959,62943,62959,62911,62895,63263,62783,62879,63071,62863,62943,62831,63151,63151,62943,63263,62863,63375,62831,63199,63343,62895,62879,63263,63087,62959,63023,62815,62879,63263,63007,62943,63087,63391,63151,63151,62943,62831,63151,63007,63151,63135,62815,62799,63055,63343,63135,63039,63135,63247,63263,63183,63327,63119,62927,62943,62895,63167,63295,62959,62895,62879,63167,63055,63359,62863,62991,63183,62959,62911,63247,62943,62831,63039,63151,63087,62991,62959,62815,62863,63151,62991,63023,63199,62783,63183,62879,62927,62959,63135,63343,62911,62863,62911,63375,63215,63167,62847,62831,63231,63215,63279,63375,63215,63263,63151,62911,63167,62927,63343,63007,63087,62911,62799,63199,63023,63055,63119,62863,63167,62799,62895,63023,63343,61791,62543,62895,61406,62719,63247,62191,62991,62831,62927,62831,62879,62927,63119,63375,62895,63183,63327,63183,62815,62799,63135,63055,62879,62815,63023,63327,63071,62959,62927,63263,63183,62783,63199,63135,62911,62911,63135,62831,63167,62943,63199,63039,62815,62831,62767,63039,62479,61262,62399,61262,60846,62095,61054,60750,61583,61102,61759,62239,61775,61615,62607,61695,62319,62703,62111,62127,62703,61583,61807,62047,61487,61150,61999,60814,60910,61487,60206,59854,60398,59294,59502,60094,58302,59582,59422,57870,59278,59070,57774,58782,59054,57438,58414,57678,56285,56717,55837,54541,55789,55245,54333,55661,55901,55677,56509,56253,53725,53020,51340,50188,50748,50316,51100,52908,53805,55469,57822,58510,60206,61551,61743,62575,62703,61406,61599,60942,58958,58590,57838,56477,56381,56077,55885,57518,58462,59918,60638,59678,59486,59150,57438,57101,56493,55037,55053,55261,54701,56013,57181,56813,57438,56829,57550,61807,63279,62927,62911,63391,62991,63247,63199,63039,63327,63375,63391,63327,63071,63247,62863,62959,63119,63327,62959,63055,62831,62863,63247,63039,62831,63135,62895,62879,63023,63375,63295,63391,63199,63167,63423,62863,62991,62959,62911,63375,62959,63407,63023,63423,63455,62911,63311,63407,63263,63087,63071,62927,62879,63183,63071,62911,62943,63247,63151,62991,62895,62799,63247,62911,62975,62959,63423,63215,63343,62895,63279,63119,62799,62927,63055,62863,63039,63023,63135,63391,63039,63263,62927,63247,63455,62815,63007,60430,56205,50012,41002,36744,29895,21541,18100,13619,8177,7633,5665,2864,5265,6097,6065,10690,13411,15235,20885,23877,25734,31975,35144,37129,41882,43290,43786,46859,46667,45323,47307,45707,43930,45147,43290,41098,42378,40505,38265,40105,38121,37017,39049,37705,37049,38969,37801,37625,39881,38857,39049,41402,40809,41354,44346,43978,45675,49164,49164,51372,54829,54893,59566,60382,60350,62719,63183,62703,63199,62879,63327,63471,63023,63327,63247,62927,61807,62687,59934,58014,57854,54237,51980,51804,48539,46507,46891,44602,45595,45835,43786,43930,45483,45483,47963,50236,44378,40681,38457,35368,35576,36184,39897,50620,57101,59246,61102,57966,60734,63167,63055,63439,63167,63247,63151,62959,63471,63455,63279,63007,63119,62879,63039,63375,63135,63087,63023,62863,63439,62959,62959,55117,29447,4625,256,224,240,208,64,272,192,208,336,336,20789,55501,63071,63439,62959,63007,63167,63631,63119,63327,63455,63423,63119,63119,63327,63087,63567,63215,63039,63375,63471,63391,63327,63343,63343,63199,63263,63343,63263,63791,63119,63439,63263,63663,63631,63199,63775,63327,63295,63583,63695,63295,63263,64015,63679,63327,63375,63695,63599,63535,63759,63839,63311,63647,63519,63295,63343,63535,63215,63279,63679,63375,63199,63343,63711,63391,63343,63311,63727,63391,63471,63263,63183,63391,63887,63919,63759,63471,63631,63647,63503,63263,63295,63311,63359,63887,63199,63375,63263,63599,63679,63743,63855,63823,63615,63407,63647,63551,63567,63583,63647,63759,63439,63327,63423,63583,63327,63743,63295,63647,63183,63535,63375,63279,63551,63599,63535,63679,63279,63791,63471,63439,63551,63343,63503,63407,63247,63119,63183,63455,63375,63247,63295,63199,63375,62991,63263,62767,63007,62831,63247,256,192,256,208,240,256,256,208,192,336,304,272,192,288,176,240,160,256,144,208,256,128,240,192,304,224,160,256,224,224,224,256,208,224,272,272,288,192,64,144,256,272,304,240,288,352,352,176,144,416,256,208,208,144,272,320,256,208,144,144,112,272,240,192,224,304,144,272,208,256,256,272,144,304,192,192,256,272,192,208,224,208,256,272,272,304,256,336,272,208,272,288,224,160,400,256,304,224,1168,5329,8786,12483,14931,18148,20388,21989,23445,23765,25126,25414,25254,25734,25526,24758,24389,23605,23029,22549,22309,21253,21157,20324,20020,20132,19156,19108,18692,19300,18436,18468,18628,18804,19636,19460,19124,19380,19604,20260,20517,20565,20260,21189,20757,21157,20677,20501,21157,21173,21845,21781,21573,21829,22197,22437,22965,26742,26566,26934,28006,28566,29543,30807,32583,33304,35096,36232,37321,37961,39129,39737,39865,39881,39833,40009,39577,40265,38953,39225,38457,37977,37449,36680,37017,35656,35208,35336,34824,34408,34184,33688,33464,33000,33096,32519,32583,31559,31239,31271,31623,31175,31175,30759,30791,30759,30359,30743,30567,30615,30631,30759,31079,31063,31335,31159,31271,31543,30967,31463,31063,31319,31175,31367,30999,31303,31031,30663,30791,30231,30103,29399,29271,29127,29319,28903,28518,28102,28294,28358,28070,28166,28534,28262,28326,27878,28006,27590,27670,27910,27686,27702,27526,27526,27318,27462,27414,27238,27062,27558,27334,27206,27414,27862,28054,27110,27702,28294,27174,27430,27974,27494,27382,27238,27270,27734,27222,27622,27270,27798,27958,27750,27990,27926,28422,28679,29703,30391,30903,32487,32920,33704,34600,35544,35720,37369,37609,38377,38857,39193,39705,40169,40041,39513,40201,39705,39401,39481,38553,38793,37929,37577,37145,36889,36440,36264,35752,35528,34888,34136,34120,34232,33784,33752,33544,32872,33304,32407,32455,32631,31591,31751,31767,30807,31207,30919,30951,30871,30743,30855,30631,31319,31479,30951,31591,30999,30743,31031,31271,31367,31447,30567,30791,31015,30599,31063,30855,30759,30551,30087,30359,29671,29127,29479,29079,28935,29239,29575,29415,28999,28983,28951,29271,28695,28999,28454,28662,28342,28294,28630,28662,28807,28374,28342,27926,28630,28502,28326,28390,27958,28182,28470,28390,28214,28630,28134,28246,28502,28470,27990,28230,28214,28598,28342,28214,28342,28246,27846,27878,28102,27798,28214,27830,28326,27478,27462,27654,27782,28134,27990,27958,28454,28262,28054,28102,28951,28646,28967,29895,30023,31143,31751,32663,33336,33736,35384,35352,36648,36776,37849,38441,39177,39657,39657,40377,40297,40377,40873,40697,40441,40025,39817,39465,38857,38425,38137,37705,37225,36744,36616,36040,35784,35496,34952,35144,34136,34856,34456,33848,34104,33224,33160,33080,32727,32840,33064,32679,33032,32535,32663,32792,32087,32423,32824,32647,32808,32856,32727,32295,32263,32567,32551,31943,32263,32215,32471,32407,32375,32167,31911,31815,31527,31271,31191,30903,31079,30471,30743,30471,30807,30215,30439,30183,30119,30439,30807,29815,29399,29911,29783,29639,29383,29399,29383,29639,29591,29703,29527,29751,29847,29639,29511,29223,29543,29607,29223,29351,29239,29207,29079,29335,28807,29239,29735,29335,29703,29143,29543,28679,29367,29095,28951,28999,29575,29079,28807,29191,28839,28919,28887,28903,29319,29895,30631,30759,30871,31495,32231,32743,33496,34264,35528,36424,37337,38057,39065,39657,40505,40970,41002,41578,41802,42042,42042,42362,42154,41930,41706,41898,41674,41482,40873,40729,40265,39977,39913,39353,39609,39065,38729,38617,38089,38153,38073,37657,37193,37449,37001,37337,36536,36392,36040,36296,36632,36184,36328,36184,36472,36873,36969,36969,37065,38249,37929,38313,37705,37529,38089,37993,37417,37401,37529,37769,36905,36792,36616,36520,36152,35304,35656,34360,34360,34376,33752,33576,33336,33352,32856,32840,32167,32439,32279,32039,32151,31959,31959,31671,31943,31783,32247,31863,31783,31703,31623,31303,31895,32343,31767,31799,31735,31751,31207,31671,31559,31287,31495,31623,31559,31495,31799,31527,31319,31175,30951,30983,31239,31383,31271,31751,31911,32103,33048,33176,33816,34600,35800,36969,37641,39321,39753,41114,42138,42810,43962,44602,45227,45899,46139,46555,45643,45547,45771,44714,44618,43834,43082,42330,42010,41290,41514,40377,40313,39753,39753,38537,38793,38425,38617,37817,37577,36632,36408,35976,36584,35480,35768,35208,34120,34872,34584,34360,34216,34120,34360,34024,34200,34280,33800,34488,34024,34200,34408,34104,34264,34584,34696,34968,33928,34376,33768,34200,34104,33752,32808,33032,32936,32551,32727,32695,32023,32183,31591,31959,31415,31431,31303,31623,31191,31367,31191,30711,30903,30647,30935,30631,30983,30439,31079,30231,30279,30551,30263,30039,30855,30823,31015,30503,30375,30263,30695,30087,30519,30503,30839,29655,29911,29847,30167,29847,30279,30343,30263,30471,30823,30935,30743,31367,31815,31687,31991,32856,33928,35032,36024,37017,38409,40073,40953,42394,43402,44650,45787,46811,47435,47803,48251,48651,48491,47755,42714,41546,39977,39225,38697,37897,37465,37481,37689,37545,37897,37689,37385,37817,36953,36856,36776,36248,36008,36072,35864,35112,34760,34680,33832,34056,34120,33560,33608,33608,33880,33352,33592,33112,33496,33512,33768,33896,33496,33288,33688,33416,33224,32856,33096,32551,32888,32952,32151,32231,31911,31895,31767,31239,31159,30871,30727,30615,30007,30487,30807,30215,30423,29879,29959,29895,29511,30135,30007,29863,29847,29751,29895,29575,30055,30343,30359,30343,30423,30471,30231,29831,29703,29543,28775,28486,28935,28518,28630,28406,28711,28198,28422,28182,28038,28198,28278,28198,28230,28054,27862,27974,27814,28406,28759,29239,28983,29863,30631,31511,32727,33480,35016,35768,37609,38377,40025,40953,42122,42506,43098,44330,44042,45034,44698,44234,44298,43722,43114,42842,41898,40953,40953,40089,39833,39113,38217,37785,37401,36328,35864,35768,35288,34408,34344,33960,33816,32984,33048,31623,31639,31655,31015,30839,30727,29895,30279,30023,29719,29991,30055,30343,30407,30167,30087,30391,30615,30455,30775,30679,30983,30215,30743,30471,30695,30471,30423,30455,30151,30151,29879,29463,29783,29175,28887,29063,29319,28887,29271,29255,28743,28999,28630,28887,28903,27942,27958,28390,27974,27990,27686,28166,27750,28054,27590,27798,27766,27574,27686,27270,27446,27718,27302,27606,27462,27414,27414,27942,27654,27030,27494,27318,27542,27158,26886,27494,26966,27446,26854,27430,27558,27030,26918,27222,27382,26854,26726,26598,27606,27126,26950,27574,28006,28502,29271,29959,30823,32167,33352,34408,35992,36808,38025,39657,40553,40761,42282,42634,43194,43386,44346,44090,44346,43946,43530,42938,42778,41626,41418,40393,40105,39001,38713,37849,37849,37081,36776,35736,35672,35064,35256,34776,33832,33816,33176,32936,31959,32103,32039,31143,31079,31095,30999,31031,30887,31255,30743,30855,31159,30775,31879,32071,31943,32071,32663,32087,31959,32583,32439,32359,32199,32279,32183,31511,31655,31287,30903,31399,30759,30551,30263,30247,30007,30183,29927,29591,29735,30199,30007,29911,29415,29335,29735,30039,29479,29591,29287,29623,29543,29095,29639,29479,29671,29207,29495,29783,29655,29447,29543,29335,29639,29111,29095,28935,29047,29207,29015,28759,28727,28935,28454,28582,29127,29015,29479,28919,29911,30135,30183,31511,32840,33544,34904,35816,36760,37801,39689,40393,41706,42202,43434,43514,44474,44826,44954,44362,44218,43834,43994,43098,42794,41690,41258,40041,39577,39273,38297,37481,36921,36680,36072,36280,34952,34616,33720,33560,33000,32808,32824,32295,31879,32039,31959,31335,30775,31223,30647,30935,31239,30807,30887,31671,31879,32087,31751,32471,32167,32487,32039,32455,32567,32407,32327,32343,31655,31623,31591,31031,30519,30999,30567,30375,29799,29879,29095,29415,29127,28951,29079,28470,28278,28134,28262,28342,28374,27926,27606,28214,28582,28118,28326,28502,28711,27750,28342,28566,28646,28630,28518,28614,28566,28358,28711,28422,28246,28150,28422,27990,28182,28262,27990,28342,28022,28006,27958,28262,28759,28598,29191,29543,30551,30695,32695,34088,34776,36648,37673,39385,40761,41482,43370,44426,45115,45547,46555,46907,46603,46603,46459,46171,44842,44298,43946,42650,41818,40601,39273,39961,38297,37561,37081,37081,36488,36040,35304,35336,34344,34216,34136,33816,33176,32183,32519,32055,31799,30743,31159,30887,30263,30215,30279,30167,30727,30183,30503,30999,31063,31031,31303,31031,31031,31191,30551,31031,30951,31255,30423,30503,30855,30375,30167,29975,29911,29719,29207,28614,28807,28630,28054,28214,28342,28358,27862,28054,27318,27798,27334,27014,27222,26758,26822,26790,27158,27158,26950,27126,27094,27030,27014,27398,27350,27094,27558,27366,27414,27462,27734,27478,27606,27302,27526,27670,27398,27334,27158,26662,27238,27478,27030,27430,27174,26902,27142,27094,28054,27910,28422,29447,29799,31431,32455,33816,35720,36969,38041,40105,41354,42042,43402,44122,45034,45643,46091,46123,46699,46251,46347,45259,44586,44234,43354,42682,41754,41098,40169,39817,39257,38617,38249,37961,37481,36937,36744,35928,35912,35112,35000,34616,34120,34216,33672,33208,32727,32567,31767,31655,31287,30471,30983,30727,31207,30263,30183,30407,30855,30215,30871,31127,30567,31575,31159,30727,29831,27942,27414,26726,26470,26774,26310,27174,26934,27686,27910,28086,28438,28198,28935,29063,28935,28935,29207,28214,28935,28518,28743,28614,28310,28598,28743,28759,28406,28711,28486,28326,28470,28422,27990,28294,28006,27958,28374,28679,28310,28406,28182,28502,28262,28470,28054,28743,28630,28326,28743,28294,28422,28951,28646,28759,28502,28823,28262,28759,28134,28422,28679,28390,28294,28502,29127,29543,29735,30439,31399,32359,33352,34856,36344,38313,39449,40953,42570,43930,45547,46699,47515,48587,49131,49164,48747,49516,49051,48683,47579,46795,46779,45883,45195,44314,43098,43066,42010,41674,40953,40617,40265,39721,39337,39561,38937,38489,38393,37577,37321,37193,36568,36296,35384,34600,34392,33768,33560,32407,32727,32647,31831,31831,32423,31783,31847,31943,32135,32199,32215,32439,32519,32599,32647,32295,32487,32968,32199,32039,32071,31431,30935,30887,30743,30039,29799,29687,28871,29015,28887,28086,28326,28358,27670,27958,27878,27494,27622,27750,27302,26918,27094,26982,27158,27206,26806,27110,26758,26470,26310,26582,26454,26422,26390,26374,26246,25958,26422,26150,26006,26198,26790,26422,25990,26646,26198,26662,26422,26422,26870,26582,26006,26598,25926,26086,25670,25942,26086,25942,25910,26262,26774,27142,27574,28374,29447,30119,31767,33048,34664,35800,37001,39129,40521,41290,42506,44186,45067,45531,46027,46683,46299,46523,46123,45259,44810,44074,43530,42378,41450,41018,39881,39193,38585,37641,37113,36552,35688,35576,34776,35080,34136,33720,33208,32215,32263,31479,31527,31335,31143,30631,30167,30151,29703,29863,29719,29751,29223,29639,30407,30087,30103,30231,30919,30935,30551,31191,30823,30791,30967,30999,30823,30279,30375,29719,29799,29239,28470,28695,28855,28102,28310,27846,27878,27670,27814,27462,27030,26758,26950,27062,26726,26262,26806,26726,26694,26342,26662,26550,26470,26310,26102,26470,26390,26534,26294,26214,26006,26262,26550,26422,26710,26278,26374,26790,26326,26294,26902,26454,25894,26054,26006,26550,25830,26758,27142,27446,28102,27958,29431,30487,31543,32407,34232,35416,36264,37449,39017,40457,41626,42170,42538,42778,42890,43322,42458,42682,41690,41226,40953,40297,39737,38489,37785,37065,36584,35768,35208,34792,34056,33672,32904,32792,32263,31879,30775,30615,30503,29687,29319,29047,28470,28342,28262,28086,28711,28775,28679,28887,29127,29511,29255,29863,29495,29847,29927,30135,30135,30407,30327,30135,30103,30215,29623,29495,29015,29223,28967,28374,28054,28358,27862,27606,27366,27078,27030,27046,27142,26406,26470,26454,26342,26374,26038,26438,25846,26038,26406,26406,26182,26502,26038,26214,26262,26294,25766,26278,26262,26134,26214,26390,26454,26294,26070,26342,26294,26326,26118,26070,26054,26246,26134,26438,26070,26502,26438,26118,26838,27142,28070,28823,29591,30199,31543,32936,34472,35560,37017,38489,39337,40553,41866,42202,43066,43802,43978,43498,43914,43946,43306,42794,41914,42026,40953,40217,39753,38681,38329,37641,36680,36632,35848,35800,35256,34984,34440,34136,33304,32840,32455,32359,31687,31383,30759,30183,30103,29431,29271,29351,29399,29031,29111,28855,29607,29495,29351,29511,29543,29927,30615,30135,30119,30455,29847,29719,29719,29479,29687,28951,29575,28871,28871,29095,28550,28326,27990,28070,27878,27318,27542,27030,27078,26902,27302,26598,26758,26598,26342,26950,26726,26838,26582,26582,26326,26982,26454,26278,26454,26246,26598,26566,26806,26310,26806,26486,26534,26598,26342,26374,26278,26534,26806,26326,26710,26534,26774,26566,26918,26806,26774,26502,26166,26390,26726,26902,26950,27542,27510,28502,29143,30087,30855,32055,33688,34616,35784,37529,38393,39481,40409,40970,42202,42858,43194,43482,43338,43114,43050,43034,42154,42042,41354,40793,40457,39817,39001,38713,37641,37177,37129,36712,36344,35784,35208,34728,34488,34616,33624,33576,32776,32952,32407,31879,31495,31255,31127,30391,30263,30375,29927,30103,30087,29415,29463,29287,29991,30135,30359,30279,30775,30375,30727,30759,30119,30039,30263,30247,29783,29959,29447,29143,29495,28887,28727,28550,28454,28630,28310,28390,28294,27974,27782,27622,27430,27814,27062,27030,26966,27078,26934,26950,27126,26438,27014,27190,26646,27014,26822,26838,26598,25350,24325,24405,24565,24389,24966,24918,25238,26294,26470,26678,27014,27110,27014,27606,27814,27318,27398,27110,27238,26838,26726,26838,26854,26182,25926,26326,26278,26438,26310,26694,26902,27094,27622,28374,29399,30423,31799,32423,34216,35672,36712,37817,39449,40041,41034,41738,42730,43594,43098,43962,43402,43546,42986,42490,42426,41738,41162,40905,39977,38937,38537,38089,37833,37177,36584,36200,35624,35496,34712,34520,33848,34104,33544,33528,32487,32007,32087,31799,31095,30855,30647,30359,30135,29703,29511,29687,29847,29623,29751,29831,30167,30183,30743,30535,30471,30967,31383,30503,30999,30487,30535,30535,30375,30295,29655,29623,29479,29383,29111,28390,28550,28518,28214,28550,28214,28566,28070,28054,27894,28198,27974,27766,27094,27846,27878,27926,27542,27398,27542,27222,27670,27350,27414,27622,27382,27734,27734,27926,27414,27222,27734,27398,27318,27462,27606,27334,27526,27654,27126,27446,27286,27302,27814,27430,27606,27414,27462,27158,27222,27238,26966,27014,27190,26822,27494,27542,27718,28374,29463,30119,30743,31687,33064,33864,35272,35912,36760,37945,39017,39817,40905,41482,41498,41530,41578,41370,41178,40986,40297,39817,39561,38313,37801,37289,36616,35976,35736,35208,35112,34200,34024,33672,32968,32695,32647,32119,31495,30983,30727,30903,30743,30375,29975,29911,29655,29671,29751,29607,29783,29639,29447,30087,30439,30279,31239,30823,30583,30807,30967,30903,31047,30695,30935,30199,30567,30151,29895,30135,29799,29255,28951,28823,29159,28951,28743,28422,28518,28454,28246,27958,27814,27958,27702,27574,27830,27318,27606,27654,27142,27302,27238,27590,27190,27158,27206,27110,27574,26934,27206,27030,27030,27622,27782,27558,27846,27718,27286,27574,27734,27238,27334,27206,27462,27046,27318,27062,26870,27366,26934,27622,27606,27942,28262,29031,29831,30743,31527,32695,33576,34584,35336,36488,37689,38281,39081,39897,40441,40905,40681,40953,40665,40537,40617,39817,39913,38889,38409,38169,38073,37273,35752,35768,35544,34776,34584,33992,34040,33416,32984,32247,31927,31735,31479,31271,30903,30439,30807,30615,29751,30343,29495,29927,29527,29719,29255,29575,29911,29719,30567,30855,30375,30615,30663,31191,30743,30631,30855,30439,30743,30103,29831,29975,29463,29399,29047,29255,29287,28951,28839,28326,28310,28374,28118,28342,27926,27654,27894,28134,27302,27814,27734,27462,27670,27590,27270,27830,27702,27942,27366,27926,27670,27606,27766,27718,27366,27942,27574,27734,27430,27318,27318,26966,27302,27366,27606,27478,27686,27206,27174,27318,27302,27270,27414,27046,27414,27446,28566,28502,29095,29927,30631,31191,32856,33816,34920,35736,37561,38249,39689,40745,41370,42074,42666,43082,43370,43674,43914,43914,43578,42794,42506,41770,41306,40953,40025,39897,39065,38281,38441,37737,37257,36568,36536,36152,35544,35512,34424,34136,34088,33752,33096,33192,32103,31927,31943,31255,30727,31047,30903,30391,30663,30567,30439,30359,30359,31175,30135,30567,30247,30823,30951,30871,31063,31207,30647,30423,30695,30391,30247,30439,30263,29783,29223,29207,28807,28518,28807,28326,28743,28598,28759,28646,28534,28422,28550,28294,27782,28006,28150,27862,27910,28038,27670,27302,27318,27430,27494,27350,27158,27206,27798,27478,27558,27622,27734,27734,27622,27558,27526,27222,27430,27574,26934,27142,27270,27062,27206,27270,27478,26726,26662,27238,27334,26678,26790,27238,27542,27846,28534,28775,29431,30231,31655,32407,34216,35384,37273,38329,39369,40729,41626,43114,43610,44106,45067,45403,45371,45675,45387,44714,44634,44074,43706,43146,42186,41642,41242,40937,39849,39401,38921,38121,37833,37449,36696,36232,35736,35624,35464,34872,34344,33848,33224,32840,32583,32199,31783,31367,31127,30887,30791,30439,30999,30791,30439,30823,30759,30519,30663,30839,30743,30295,30391,30535,31031,30871,30823,30967,30935,30487,30679,30167,29623,29671,29383,29207,28967,28919,28566,28887,28871,28486,28294,27702,28166,27574,28118,27686,27782,27318,27206,27478,27286,26886,27222,27094,27574,26790,26790,27286,27014,27510,27286,26902,27046,27126,27158,26646,27430,26950,27158,26966,26950,26950,27142,26470,26886,26710,26678,26566,26582,26374,25926,26262,25862,25910,26006,25670,25350,25574,26726,26438,26182,27366,28166,29527,30871,32487,34920,35992,37689,39273,40921,41882,43162,44058,44698,45499,45451,45018,44602,44682,44538,43738,43066,42074,41610,40953,39657,39673,38793,38025,37305,36760,36136,36184,35336,35112,35288,34616,33976,33368,32840,32647,32167,32311,31719,31175,31751,31063,30615,30759,30855,30423,30167,30567,30759,30807,31159,31031,30823,30999,31271,31303,31447,31399,30887,31383,31303,30759,30983,31031,30231,30263,30119,29671,29591,29575,28438,29111,28038,28070,28166,28102,28358,27878,28038,27366,27462,27462,27302,27094,27238,27302,27094,27238,26150,27110,27190,26758,26950,27238,26982,27078,26902,27046,26774,27094,26982,27014,27238,26870,26902,26406,26294,26838,26646,26838,25814,26646,26566,26358,26534,26326,26182,26950,27030,27606,28486,29111,30151,31239,32551,33768,35208,36168,37433,38761,39977,40585,41194,42058,42378,42426,43562,43242,43130,42714,42650,41946,41130,41338,40137,39657,38617,37657,37289,36488,36056,35160,35000,33768,34136,33032,33128,32487,32407,31831,31127,31207,30759,30391,30087,29559,29271,29063,29031,28999,28871,28999,29143,29703,29719,30295,30599,30375,31191,30887,31207,31303,30407,31015,30535,30791,30551,30135,30087,30439,29751,29575,28807,28855,28582,28262,27910,27926,27270,27430,27062,27542,27206,26966,27126,26790,26806,27030,26998,26918,26454,26566,26566,26710,26822,26630,26182,26326,26470,26262,26310,26518,26278,26246,26342,26086,26086,26054,26470,26278,26630,25990,26422,26678,26406,26534,26694,26774,27030,26694,26742,26694,26918,27830,27958,28230,28807,29847,31319,32327,33976,35160,36680,37977,39113,40521,41402,42698,44090,44586,44938,45467,45883,45819,45323,45515,45034,44618,43738,42874,42362,41754,40649,40521,39625,39401,38313,37465,37113,36248,35672,35624,34920,34712,34184,33544,33320,32663,32215,32327,32055,31959,31207,31223,30887,30695,30951,31031,30327,30871,30519,30727,30999,31207,31191,30647,31015,31367,30935,30791,31175,30615,30743,30807,30983,30631,30407,30023,29927,29943,29623,28999,28999,28775,28166,28502,28582,28310,27958,27750,27622,28006,27062,27318,27382,26918,26982,27174,27270,27062,27158,27270,27142,27158,26886,27110,26758,27142,27190,27094,27526,26934,26982,26854,27110,26822,26822,26662,26662,26742,26534,26294,26342,26854,26502,26422,26182,26902,26758,26886,26886,27478,27782,28358,29015,29879,30743,31991,33688,35224,36488,37689,38873,40393,41066,42378,43626,44474,45018,45099,45259,45851,45803,45787,45227,44682,44186,43258,42442,41914,41050,40521,39769,39177,38585,38249,37929,37561,36921,36520,36200,35720,35528,34536,34600,34104,33624,33144,32727,32872,32087,32279,31047,31543,31463,31303,31143,30743,31063,30727,30887,31063,30695,30999,30791,30743,30903,30951,30727,30551,30599,30471,29655,29671,29591,29591,29079,29015,28695,29191,28903,28566,28454,28230,27830,27846,27494,27014,27046,26998,26966,26966,26710,26774,26534,26246,25942,25894,25942,25686,25750,26054,26294,26454,25910,26006,26454,26262,26582,26614,26454,26326,26726,25958,26198,26294,26390,26726,26278,26294,25878,26598,26070,26278,26326,26086,25766,26150,25782,26630,26918,26982,27638,28582,29527,30199,31431,32471,33880,35176,36824,38025,39465,40521,42138,42698,44298,44522,45018,45323,45627,45259,44746,45067,44106,43786,42890,42058,41274,40713,39721,39305,38313,38329,37769,36824,36504,35768,35304,34456,34392,33752,33432,32952,32407,32295,32423,32039,31703,31111,30983,30999,31655,31127,31431,31239,31127,30903,31127,31383,31575,31799,31703,31767,31447,31431,31783,31783,31079,31671,31575,31543,30807,30551,30119,30519,29479,29543,29335,28967,28919,28326,28374,28198,27542,27590,27398,27078,27062,27190,26806,27222,26454,26550,26166,26822,25862,25814,25782,26406,26230,26166,26358,26214,26246,26726,26342,26342,26774,26374,26566,26662,26774,26742,26454,26790,26198,26598,26678,27190,27046,27830,27926,28342,29159,30247,31239,32391,33576,35032,36568,38025,39193,40345,42154,43098,43498,44426,44970,45163,45323,45131,45099,44634,43786,43466,43082,42458,41290,40777,39945,39721,38713,37689,36632,36568,35720,35288,34792,33864,33224,32727,32567,31671,31591,31079,30935,30567,30999,30215,30311,30103,31127,30535,32231,30999,30919,30727,30647,31015,31287,31943,32039,32343,32840,33176,33208,33480,32904,32695,32824,32407,31799,31575,31399,30983,30439,30039,30023,29335,29239,28935,28999,28566,28358,28390,28166,28294,28438,28422,28550,28246,28646,28086,28823,28550,28294,28294,28038,28502,27830,28038,28470,28310,27926,27942,27414,27734,27430,27190,27174,27782,27638,27430,28230,28470,29159,30247,31223,31991,33512,35128,36680,38105,39945,41242,41914,43882,44554,45787,46299,46539,47163,47339,47483,46907,46027,45595,45275,43610,42938,42282,41242,40217,39481,38841,38169,37801,36328,35944,35432,34056,34088,33672,32519,32359,32023,31879,31671,31111,30951,30743,30391,30327,30055,29847,30135,29511,29415,29575,29895,29767,30119,30391,30487,30391,30823,30743,30791,31015,31175,31063,31031,30599,30535,30167,30071,29575,29015,28839,28550,28262,28054,27958,27670,27382,27206,27430,26806,26550,26790,26566,26694,26278,26134,26902,26902,26454,26550,26566,26790,26726,26710,26646,26582,26566,26342,26470,26166,26134,26438,26086,25750,25990,25446,25830,26326,25910,25654,25318,25142,25222,25238,25686,25558,25734,26166,26342,26806,27174,27958,28951,30023,31911,32695,34472,36088,37593,38969,40377,41818,43370,44410,45403,45627,46267,46171,46619,45739,45755,44874,43962,43530,42602,41674,40905,39769,39641,38793,38345,37305,37001,36392,35272,34632,34696,34040,33592,33032,32808,32295,31895,31479,31143,30727,30663,30167,29799,29591,29207,29095,29703,28791,29831,29799,30279,29879,30599,30263,30615,30295,30791,30951,30935,31143,30503,30775,30391,30439,30599,29719,29575,29447,29063,28038,28422,28198,28214,27718,27622,27350,27094,26774,27046,27158,26838,27014,26518,26694,26678,26806,26774,26630,26214,26038,26502,26246,26438,26550,25830,26374,26454,25958,26470,26294,26342,26454,26806,26534,26422,26454,26790,26502,26598,26598,26134,26454,26166,25798,26422,26198,26662,26262,26038,26038,26022,26022,26134,26374,26950,27014,27430,27910,29527,30087,31799,33512,35128,36376,37785,39945,41626,42490,43722,44938,46331,46603,47563,47627,47323,47035,47179,46523,45323,44346,43434,42330,41626,40713,40057,38681,38489,37737,37401,36776,36136,35736,35272,34632,34568,33512,33224,32679,32535,31927,31031,31079,30823,30647,30567,29975,30151,30151,29767,29511,29799,30151,30103,30359,30407,30695,30535,30487,30551,30487,30487,30519,29927,30023,29975,29463,29271,29543,29127,29031,28855,28743,28358,28791,27734,27910,27526,27286,27046,27078,27014,26662,26422,26646,26406,26070,26118,26102,25862,25910,26150,25622,25734,26054,26310,25990,26038,26326,26118,26198,26214,26326,26438,26854,26710,26390,26630,26070,26502,26566,26774,26134,26390,26790,26246,26262,26598,25910,26630,26758,26518,26342,26294,26454,26006,26198,26422,26710,25990,26358,25830,26246,26246,25782,25574,25862,26326,26678,26646,27654,28903,29447,30919,32023,33816,35208,37161,38585,40217,41754,42810,44186,44874,46699,47147,47259,47675,47467,47003,47275,46091,46235,45034,43914,43498,42554,41546,40937,40297,39081,38617,37737,37321,36744,35800,35336,35000,34408,33880,33848,32968,32856,32439,31511,31831,31559,31127,31335,31287,30999,31399,31175,30967,30807,30983,31447,30839,31559,30951,31271,31671,31847,31543,31527,31687,31415,31399,31223,30935,31111,30391,30503,30151,29943,29559,29463,28839,28839,28614,28326,27686,27734,28070,27622,27638,27622,27654,27334,27334,27158,27398,27142,27062,27030,27270,26918,27318,26934,27222,26758,27318,27014,26630,26950,26870,26886,27286,27270,26950,26966,27398,27110,26678,26966,26966,26438,26934,26790,26886,26710,26758,26678,26582,26374,26646,26438,26230,26918,26822,27302,27750,29031,29319,30535,31847,33272,34616,35912,37481,38729,40553,41546,42634,43402,44410,45147,45547,45771,46011,45771,45755,44746,44282,43866,43018,42538,41146,40489,39705,38873,37913,37305,36905,36072,35912,35272,34360,33544,33160,32439,31879,31975,31751,31015,30375,30487,30023,29799,29319,29767,29783,29319,30247,30087,30439,30727,30791,30935,30855,31207,31511,31671,31671,31447,31527,30951,31175,30887,30247,30951,30391,30439,29911,29735,29447,29463,28486,29015,28486,28182,28102,27750,27894,27526,27542,27382,27606,27078,27174,27030,27046,26806,25286,24565,24469,24565,24453,25030,25350,25750,26310,26454,26518,27046,27334,27574,27078,27782,27270,27414,27158,27366,27286,27510,26662,26918,26630,26582,26054,26262,26438,26470,26454,26454,25942,26390,26310,26198,26310,27110,27318,28358,28070,29335,30471,31879,33672,34936,36536,37657,39593,40921,42586,44026,45419,46171,46747,47675,48443,48203,48299,48443,47947,46987,46827,45851,45163,44330,43114,42970,41418,40937,40649,39465,38825,38841,38057,37449,36873,36905,35848,35560,35128,35048,34056,33992,33032,33384,32599,32583,32535,31959,31815,31895,31687,31559,31319,31431,31367,31575,31527,31959,32247,31319,32199,31527,31559,31639,31543,32055,31399,31239,31047,30919,30695,30247,30055,29815,29271,29431,28887,28759,28374,28438,27958,28310,27942,27558,28038,27542,27526,27526,27302,27606,27318,27542,26806,26758,27142,26774,27222,26758,27190,27094,26902,26902,26966,26774,27174,26758,26838,26966,27318,26870,27318,26758,27014,27286,26966,27190,27222,26982,26966,27206,26902,26502,27046,26950,26966,26502,26918,27030,27046,26774,26806,26678,26646,27590,27798,27782,28214,29271,30295,31527,32519,34360,35256,36889,38681,40265,41818,42650,44506,45835,46379,47499,47643,48235,48491,48587,48075,47627,47211,46491,45995,45403,44634,43562,42618,42058,41706,41098,40633,39897,38953,39161,38153,37913,37481,36969,36824,36104,36040,34552,34520,34072,33512,33256,32984,32663,32279,32503,32407,32055,31831,31719,31799,32135,32199,31927,32247,31767,32503,31991,32311,31687,31799,31687,31639,31591,31607,31623,30951,30871,30343,30135,30119,29831,29415,29143,28711,28566,28326,28470,28230,27878,27926,28374,27798,27958,27606,27862,27622,27798,27414,27574,27718,27238,27414,27782,27270,27542,27126,27334,26902,26934,27174,27606,27318,27222,27030,27398,26918,27062,27062,27206,26278,27030,27142,27190,27110,26726,26982,27414,26966,26758,26950,26758,27110,26870,27190,26518,26822,26470,26310,26438,26902,26486,26838,27430,27782,28807,29319,30423,31495,33224,34392,36136,37545,39081,40489,41642,42970,44378,45547,46139,46955,47435,48267,48555,47739,47563,46587,46187,45131,44954,43370,43034,42330,41642,41370,40873,39993,39225,39065,38665,38313,37833,37241,36632,35784,35320,34856,34840,34328,34200,33816,33032,32567,32295,32327,31687,31911,32103,31847,31991,31847,32087,31815,32103,32055,31783,31959,32087,31911,31719,32199,31895,31463,31239,31271,31287,31127,30503,30343,30471,29319,29463,29463,28919,28502,28823,28695,27926,28182,28294,28214,27702,27782,27462,27366,26982,27622,27046,27254,26966,27414,27126,27382,27174,27494,27270,27670,27318,27734,27446,27286,27398,27446,27158,26950,27574,27254,26950,27206,27270,27078,27062,27142,27062,27158,26630,27046,26790,27206,26918,26934,26854,26854,26790,26918,26806,26950,26902,26774,27158,27350,28150,28871,29575,30967,31767,33336,34376,36008,37097,39145,40281,41146,42634,43866,44970,45723,45963,46347,46571,46395,46187,45899,45211,44218,43466,43226,42298,41290,40953,40089,39657,38553,38153,37737,36504,36568,35528,35416,34936,34392,33368,32984,32471,32503,32023,31319,31367,31207,31495,31287,31463,31111,31207,31831,31575,32071,32183,31799,32407,32279,32519,32856,32647,32872,33128,32519,32792,32599,32423,32535,31639,31415,31431,31031,30759,30183,29447,29495,29319,28711,28807,28422,28695,28646,28502,28326,28230,28118,28310,27974,28102,27958,27686,27494,27798,28518,28118,27894,27590,27590,27558,28102,27798,27686,27462,27958,27654,27414,27174,27494,28150,27366,27734,27814,27798,27814,27686,27590,27318,27622,27590,27814,28118,28839,29031,29703,30551,31719,32583,34216,35640,36776,38073,40105,41002,42218,43210,44202,44858,45755,46315,46347,46091,45979,45995,45771,45339,43994,43466,43082,42138,41690,40585,40073,39481,38473,38185,37273,36776,36632,35720,35048,34440,34072,33448,33192,32711,32295,31751,31079,31159,31207,30823,30999,30983,30167,30535,31063,31063,30775,31383,31159,31431,31623,31223,31767,31719,31799,32023,31815,31847,31271,31287,30999,31127,30951,30823,30439,30263,29719,29191,29191,28983,28935,28871,28502,28486,28582,28855,28486,27686,27990,28470,28214,27798,27942,28342,27846,28070,27462,27398,27686,27718,27718,27366,25734,25446,25254,25478,25334,25398,25798,26054,26758,27494,27670,27734,28198,28262,28679,28983,29415,29991,30551,31815,32327,34696,35640,36696,38153,40041,41034,42730,44250,45771,46603,47707,48667,49564,49692,50060,49516,49500,48747,48411,47659,46683,46155,45211,44522,43530,42586,42330,41498,41002,40425,39721,39305,38825,38153,37721,37033,36600,36312,35624,35128,34440,34008,33640,33208,32792,32535,32263,32391,32167,32007,31975,32263,32439,32071,32471,32647,32599,32663,32695,33096,33672,33048,32599,33064,32727,32199,32679,32279,31959,32007,31095,31367,30631,30775,30263,29895,29687,29367,29143,29079,28855,28711,28967,28871,28919,28646,28582,28855,28518,28438,28294,28182,28086,27958,28054,28102,28374,27846,27958,28102,27734,27766,27446,27702,27174,27430,27222,27350,26886,27398,27302,26646,26694,26710,26710,26502,26214,26198,26166,26166,26134,26790,26694,27062,27606,28486,29511,31015,32391,33864,35512,37257,39113,40393,42378,43418,45211,46235,47131,47883,48539,48571,48411,48027,47771,47435,47019,45787,44330,43354,42026,41130,40217,39481,39241,38793,38009,37689,37193,36568,36408,36168,36136,35224,34472,33848,33656,33240,32327,32231,31783,31383,31239,30903,30615,30407,30583,30215,29719,30039,30775,30231,30535,30951,30551,30759,30375,30951,30887,30903,30775,30967,30503,30679,30039,30087,29927,29639,28887,28839,28727,28166,28342,28214,27926,28182,27558,27542,27286,27478,27414,27158,27158,26966,26758,26982,26534,26790,26550,26774,26518,26694,26726,26886,26694,26582,26374,26806,27014,26902,27478,27174,27302,26950,27478,27558,27366,27142,27142,27318,26886,27046,26966,26550,27094,26790,26502,26454,26518,26534,26422,26342,26918,26662,26966,26582,26422,26694,26630,26790,26662,27478,27830,28086,28935,30039,30999,32407,33928,35304,37321,39225,40489,42490,43722,45931,46683,48075,49196,49628,49836,49708,49756,49099,48731,48155,47163,46299,45707,44442,43226,42298,41290,40953,40249,39657,39017,37993,37673,36824,36296,35832,35704,34616,34440,33752,33256,32824,32279,31975,31367,31063,31191,30999,30199,30647,30743,30695,31207,30759,31431,30599,30983,31575,31175,31959,31447,31831,31575,31815,31703,31415,31591,30967,30791,30599,30487,30295,29271,29319,29031,28310,27974,28038,27926,27878,28038,27526,27606,27270,27446,27446,27254,27606,27062,27590,27462,27286,26854,27190,26454,27142,27126,27078,27030,27190,26806,27398,26790,27030,27046,27046,26806,27094,26870,26854,26934,27142,26662,27014,26758,26630,26838,26790,26390,26870,26630,26774,26694,26646,27718,27718,28310,29543,30551,31447,32984,34200,36008,37193,38793,40601,41418,43034,44170,44874,45755,46267,46171,46347,45915,45227,45002,44250,43594,42682,42074,40986,40361,39337,38793,38041,37257,36568,35768,35368,34392,34472,33816,33416,32856,32055,32087,31399,30551,30503,29879,29479,29719,29463,29207,29511,29623,29751,30247,30071,30695,30423,30615,30679,30519,30535,30615,31079,30951,30807,30471,29671,29847,29623,29335,28871,28839,28342,27558,27142,27414,26934,26710,26582,26262,25654,25574,25734,25142,25350,24854,24806,24806,24469,24565,24565,24806,24614,23845,24165,24565,24325,24165,24565,24405,24277,24405,24069,24165,24630,24565,24533,25030,24533,25126,24726,25158,24630,25094,25206,25110,25462,25702,25302,25430,25990,25734,26054,26502,26710,26582,27462,27926,29351,30215,31639,33000,34696,35496,37081,39145,39961,41818,43098,44170,45275,46395,47019,47787,47419,47771,47595,46907,46635,45867,45034,44522,43578,42938,41530,41034,40745,39449,39961,38857,38873,37529,37433,36424,36536,35768,35192,34968,34664,33560,33512,32952,32343,31895,31831,31751,31111,31111,30855,30359,30663,30599,30887,30727,30663,30727,30727,30727,30759,30631,30567,30503,30727,30663,30631,30647,30087,29831,29719,29479,29287,29479,28807,28711,28342,28807,28406,28070,28198,27686,27670,27398,27462,27174,27398,27206,26886,27158,27078,26774,26758,27094,26806,26406,27302,26454,27030,26822,26534,26902,27078,26534,26902,27126,27190,26710,26902,27062,26838,27094,27190,26662,27462,27462,27110,27494,26918,26982,27158,26454,26758,26774,26694,26806,26310,26326,26582,27318,27414,27462,28054,28582,29223,30663,31383,32695,34648,35512,37273,46331,46555,46459,46251,46827,46475,47259,46651,46443,46139,45771,45018,44762,44218,43402,42874,42522,41658,41194,40953,40857,39737,39225,38585,38505,37625,36873,36120,35416,35432,34520,34440,34280,33576,33208,32599,32135,32215,32039,32215,32327,31783,31815,31975,31719,31751,31383,31735,32039,31847,31367,31287,31239,31303,31159,31287,30807,30151,30423,29847,29479,29447,29191,29207,28470,28502,28406,27990,27590,27590,27494,27590,27462,27302,26870,27366,27222,27398,27142,26918,26854,26806,27174,26790,26614,26678,26854,26582,26630,26950,26518,26806,26246,26294,26470,26454,26790,26502,26406,26630,26806,26438,26566,26694,26310,26838,26774,26758,26534,26566,26438,26278,26774,26934,26662,26566,26454,26598,26518,26726,27094,27366,27542,29031,29319,30263,31271,32920,34152,35560,37577,38841,40297,41898,42922,44378,45451,46427,47131,47515,47787,47979,48107,47659,46875,47003,45755,44618,44170,44138,43514,42538,41786,41194,40809,40489,39689,39113,38473,38345,37897,37641,37033,36744,36024,35928,35032,34968,34648,34360,33896,33560,33112,33000,32471,32631,32439,32743,33048,32711,32359,32936,32968,33544,33480,32872,33544,32952,33160,32952,32952,32215,32311,31639,31383,31383,30615,30631,30151,29975,29671,29303,29255,28646,29015,28102,28230,27990,28166,28470,27958,28054,28102,27846,27910,27478,27718,27862,27062,27318,27702,27366,27366,27494,27590,27398,27670,27526,27622,27366,27526,27654,27334,27654,27590,27430,27366,27462,27606,27302,27414,27654,27254,27718,27350,27174,26886,27014,27286,27206,27606,27894,28903,29495,30023,30727,32439,33544,35048,36072,37897,39497,40473,41722,43178,44298,45099,45803,45963,46635,46315,46075,45739,45467,44602,44074,43530,42970,41706,40953,40457,39625,38825,38297,37273,36408,36088,35560,35384,34728,34072,33112,32904,32487,32087,31447,31431,30695,30647,30423,30679,30279,30119,30407,30423,30311,30631,30775,30615,30567,30935,30631,31063,31063,31479,31111,31383,31383,31159,31111,30439,30855,30519,29831,30151,29783,29735,29607,29015,28935,28566,29015,28486,28406,27654,28070,28102,27670,27734,27606,27462,27318,27094,26886,27190,26694,26694,26342,26710,26966,26646,26774,27206,26710,26662,27158,26966,26934,26726,27302,26694,26726,27190,27478,27190,27142,27286,27062,26982,27014,26950,26950,27174,27110,26934,26806,27046,27590,28214,28422,29975,30535,31335,32615,34088,35544,36905,38601,40041,41258,42762,44154,45291,45995,47147,47003,48075,47883,48187,47659,47211,47003,46267,45387,44234,43498,42346,41850,41322,40970,39705,39113,38537,37785,37273,37017,36248,36104,35000,35192,34296,33896,33592,33592,32711,32727,32295,31735,31703,31735,31559,31191,31383,30823,31511,31159,31495,31559,31319,31527,31751,31639,31767,31591,31975,31655,31559,31735,31191,31623,31127,30823,30615,30391,29415,29127,29207,28727,28566,28550,27958,28310,27686,27654,27494,27590,27318,27702,27446,27238,27142,27158,27158,26902,26966,26870,27046,27302,26502,27334,26838,26710,26534,27206,26918,27270,27398,27158,26982,27398,27302,27334,27590,27302,27398,27350,27302,27110,26982,27238,27382,26918,26758,27014,27190,27446,27654,28150,28791,29319,31335,32727,33688,35096,36440,38345,40665,41226,43098,44586,45979,46955,48043,48715,49180,49388,49356,49131,48523,47995,47451,46891,46283,45147,44506,43050,42330,41962,40937,40473,39561,39097,38297,38185,37561,37129,36584,36056,35016,34840,33816,33640,33112,32519,32039,31847,31463,30823,30759,30279,30391,30487,30983,30551,30343,30647,30535,30855,30551,31127,30727,31191,30631,30535,30663,30551,30823,30631,30279,30167,30055,29463,28839,28903,28406,28102,27910,27782,27558,27686,27510,27574,27366,27206,26950,27238,27158,26726,26838,26806,26838,26550,26726,26342,26566,26326,26678,26774,26758,26198,26646,26166,26294,26278,26630,26454,27062,26630,26822,26678,26662,26710,26502,26598,27014,26822,26902,26982,26518,26534,26678,26694,26534,26582,26630,26550,26982,27814,28390,29399,29991,30919,32551,34024,35096,36632,37721,39273,40585,41738,42794,43802,44634,45355,46123,46251,46475,46395,46139,45387,45243,44746,43882,43162,42906,42122,41290,41034,40105,39625,38585,38537,38025,37657,36760,36264,36072,35416,35128,34056,34104,31223,30343,29095,28614,28855,29271,29735,30279,30647,31495,31799,32263,32391,32279,32679,32279,32135,31655,31655,31431,31031,30759,30295,30007,29831,29527,29079,28630,28630,28839,28727,28134,28198,28695,28438,27798,27798,27862,27926,27990,27702,27958,27942,27350,27174,27414,27110,26790,26982,26886,26790,27302,26854,26758,26694,27190,26678,26598,26886,26982,26710,26854,27030,27142,26598,27174,27286,26726,26774,27078,26774,27014,27286,27142,27398,27750,28326,28935,29751,30983,32231,33560,34456,36168,37209,38489,40025,40889,40953,42474,43034,43850,44170,44474,44586,44138,44250,43994,43178,42986,42666,41562,41034,40793,39641,39433,38169,37641,37145,36472,36328,35304,35208,34488,34232,33992,32968,32519,32647,32343,32375,31687,31431,31111,31047,31383,31207,31479,31271,31399,31783,32023,31895,32792,32391,32519,32407,32359,32920,32359,32439,32007,31799,31943,31575,31767,31175,31415,30887,30359,30135,30183,30103,29447,29751,28951,29111,28598,29015,28230,28486,28342,27894,28422,28246,28166,28022,27302,27734,27366,27654,27238,27318,27238,27046,27142,27222,27590,27622,27670,27158,27526,27174,27094,27702,27446,27158,27030,26646,27014,27430,27286,27734,27430,28214,28598,29671,30087,31543,32792,33704,34984,36408,38057,38873,40169,41386,42218,43258,44234,44746,45291,45675,45867,45867,45627,45291,44730,44330,44042,42842,41962,41818,40745,40265,39449,38793,38377,38025,37161,36472,36072,35848,35496,34776,34440,34088,33496,32904,33416,32535,32295,32103,32327,32231,32215,32343,32087,31639,32199,32135,31799,32311,32455,32455,31831,31911,31895,32103,31895,32071,31591,31751,31687,31143,30871,31303,30647,30807,30567,30647,30263,29543,29431,29879,29111,28887,28679,28823,28775,28727,28598,28582,28582,28102,28086,27670,28246,28294,28214,27942,27590,27686,27782,27814,27446,27558,27206,27014,27046,27622,27334,27350,27238,26854,27238,27238,26822,27014,27094,26630,26726,26422,26758,26582,27046,27238,27078,27654,28102,28695,29239,30455,31783,33048,34600,35912,37353,39241,40745,42314,43290,44906,45723,46635,47515,47979,47947,48011,47963,47883,47259,46635,45291,44218,43482,42810,42554,41162,40953,40665,39737,39529,38809,38697,38089,37561,37273,36552,36472,35736,35560,35096,34792,34232,34136,33816,33576,33240,33128,33224,32695,32984,32952,33192,33320,33368,33352,33544,33768,34008,33576,34392,33880,33864,33912,33496,33576,33448,32904,32535,32327,32583,31735,31687,31383,30855,30295,30599,30247,30103,29399,28871,28759,28598,28454,28038,28134,27958,27734,27750,28262,27622,27958,27782,27542,27958,27558,27814,27238,27654,27046,27526,27286,26998,27334,27110,27190,27334,27430,26966,27094,26758,26998,26710,26598,26342,26502,26262,26630,26646,26566,26582,27158,27798,28086,29847,30247,31815,32679,34584,35816,37609,39065,40953,42186,43690,44522,45835,46427,47403,47835,47627,48075,47611,47211,46123,45579,45067,43930,43114,42682,41914,40953,40153,39705,38825,38649,37641,37017,36905,36104,35384,34840,34568,34200,33112,32695,32199,31895,31847,31111,30999,30231,30023,30151,29767,29703,30007,30167,30279,30471,30903,31111,30631,30871,31191,31047,31319,30647,30999,31031,30679,30247,29735,29607,29463,29287,28839,28887,28791,28422,28695,28646,28422,28070,27990,27958,27734,27686,27414,27462,27494,27222,26982,26886,26598,26710,27030,26774,26886,26902,26710,26838,26598,26950,27142,26806,27030,26966,26950,26966,26726,26854,27014,26566,26678,27110,26790,26790,26710,26278,26550,26326,26182,26358,26502,26790,27174,27702,28294,28951,30183,31703,33064,34344,35848,37049,38841,40297,41882,43210,44058,45339,46107,46827,47019,47675,47547,47755,47083,46875,46091,45403,44650,43850,42634,41722,41242,40393,39865,38825,38297,37817,36632,36152,36264,35096,34888,34632,33336,33272,32167,31895,31719,31367,31687,31559,31207,31383,31287,31175,31879,31639,31559,32087,32215,32279,32647,32695,32920,32824,32727,32984,32295,32567,32391,31975,31527,31703,31559,31127,30903,30823,30231,30087,29191,29447,28630,28951,28166,28294,28118,27750,27574,27862,27590,27206,27574,27542,27414,27318,27494,27222,26950,26806,27014,27142,27014,26982,26854,26630,26902,26790,26694,27142,26982,27158,27206,26694,26630,26774,28134,27814,28486,29623,30663,32535,34248,36264,38185,40393,41498,43338,44714,45883,46427,46859,46875,47051,46891,46603,46091,45147,44218,43706,42922,42234,41114,40617,39673,39049,38313,37769,36520,36376,35768,35208,34840,34200,33288,33128,32824,32023,31751,31639,31431,31399,30903,30599,30999,30167,30823,30743,30247,30919,30823,30679,31447,30775,31255,31431,32055,31703,32103,31687,31255,31431,31767,31143,31111,30599,30151,30151,29575,29447,29335,28903,28935,28582,28406,28230,28054,27926,28006,27318,27734,27606,27606,26966,27206,27318,27478,27462,27270,27126,27206,27222,27398,27414,26854,27030,26982,26886,26998,26950,27062,26694,27158,27062,26790,27014,26886,26854,26470,26438,26438,26582,26934,27158,27222,27910,28775,29703,30439,32151,33224,34360,36472,38361,39945,41674,43402,44490,45995,47307,47755,49212,49660,49932,49804,49820,49083,48811,47931,46955,46299,45499,44490,43882,42586,42202,40986,40505,39945,39193,38633,38089,37657,37081,36792,35880,36056,34744,34744,34440,33768,33608,32727,32824,32551,32439,32135,31623,31079,31207,31159,31463,31543,31639,32231,31511,31591,31703,31591,31799,31943,31639,31287,31127,31079,31159,30615,30551,30423,29975,29399,29367,29063,28839,28278,28358,28118,27942,28310,27670,27654,27782,27638,27574,27238,27046,26934,26854,26662,26678,27062,26934,26598,26838,26838,26374,26710,26886,26902,26278,26806,26774,26982,26806,26774,26838,26582,26806,26982,26358,26518,26646,26470,26758,26918,26902,27094,27526,27830,28646,29879,30743,32487,33928,35016,37113,38617,40361,42058,43578,44586,46475,47579,48235,49372,49644,49452,49388,49003,48731,48299,47691,46747,45707,44842,43898,43194,41946,41162,40953,40153,39657,39081,38601,38569,38105,37209,37145,36328,35512,35336,35000,34392,33576,33016,32695,32327,31687,31623,31575,31559,31479,31159,31159,31575,31495,31031,31287,31287,31191,31767,31335,31479,31223,31367,31239,30695,30999,30503,29783,30103,29719,29271,29399,28662,28951,28711,28695,28246,27926,27734,27590,27366,27062,27286,27462,26758,26630,26502,26630,26310,26646,26038,26358,26198,26806,26870,26262,25926,26454,26150,25798,26054,25990,26646,25798,26182,26374,26406,26054,26454,26326,26406,26406,25814,26150,26246,26166,26278,26374,26262,25846,26390,26054,26438,26342,26518,26854,27494,28086,28679,29335,30423,32327,33864,35544,37641,38857,40473,42282,43594,45227,46491,47515,48219,48715,48683,48907,49372,49308,48299,48043,46971,46075,45371,44554,43546,42538,41898,40953,40217,40393,39273,38585,38377,37737,37433,36696,36072,35784,34936,33912,33864,33480,32487,32599,32519,31879,31655,31143,31447,30791,31159,31143,31399,30983,31287,31447,31367,31271,31367,31511,31319,31543,31431,31079,30935,30679,30439,30599,30263,30263,30359,30007,29351,29479,29079,28566,28390,28102,27846,28166,27574,27542,27798,27302,27750,26998,27110,26886,26902,27110,27046,27094,27094,27190,27078,26838,27158,27286,27014,26886,27110,26774,27174,27126,27030,27446,27030,27174,27110,26838,27078,27238,27158,27030,27030,27318,27222,26934,27110,26694,26790,27094,26438,26886,26534,26982,26854,26902,27078,27814,28246,29255,30263,31543,33880,35000,37145,38249,39689,40953,42698,43690,45211,46219,47259,47275,47531,47947,47803,47467,47227,46491,46139,45067,44186,43738,42506,41962,41178,40041,39561,38505,38489,37593,37401,36440,35784,35320,34920,34456,33592,33080,33064,32583,32359,31703,31943,31511,31415,31591,31415,31671,31415,31911,31831,32295,32263,32343,32391,32872,32487,32727,32679,32311,32103,31943,31767,32039,31895,31527,31383,30919,30759,30727,29991,29703,28502,28823,28502,28646,28294,28743,28118,27990,28166,28246,28102,27686,27942,27718,27462,27622,27862,27494,27526,27622,27590,27078,27398,27414,27462,27622,27446,27558,27206,27446,27302,26854,27142,27270,27078,26902,26710,27318,27318,27046,27014,27414,28086,28374,29639,30311,32215,33240,34664,36264,37785,39193,41050,42202,43546,44698,45675,46395,46651,47547,47323,47243,47147,47067,46555,45403,45147,44346,43466,42874,41946,41322,40601,39977,38969,38585,38025,37465,36953,36552,35944,35336,34728,34136,33864,33352,32535,32231,32263,31207,31495,31447,31543,31255,31303,31159,30887,31671,31015,31015,29863,28855,28486,28294,28454,28406,29271,29351,29527,29975,29575,29607,29447,29479,29463,28727,28214,28070,27814,27558,27078,27078,26806,26646,26086,26566,26534,26326,26262,26390,26134,25862,26406,25958,26342,25366,26390,26454,26246,26518,26198,26294,26662,26150,26806,26406,26406,26342,26630,26214,26774,26374,26358,26406,26550,26678,27014,27446,28054,28967,29799,31063,32776,33928,35736,37193,39321,40745,42234,43962,45307,46923,47227,48043,49003,48939,49180,48699,48603,47931,47531,47115,46059,45291,44314,44010,43338,42042,41770,41258,40713,40265,39689,39113,38857,38201,37593,36905,36296,35736,34840,34536,34008,33416,32824,32231,31671,30983,31319,30215,30087,29671,30151,29639,29975,29847,29479,29783,29927,29863,29719,30263,30263,30167,30343,30151,29927,29911,29351,29159,28823,28614,28582,28550,27782,27846,28134,27830,27222,27494,27078,26598,26630,26182,26598,26774,26486,26150,26790,26230,26518,26502,26118,26390,26358,26406,26086,26662,26422,26550,26550,25942,26454,26150,26726,26214,26710,26374,26118,26390,25766,26070,26022,26038,25766,26086,26022,26182,26710,26902,27718,28214,29079,29991,31511,32391,34024,35480,37257,38553,40089,41002,42458,43162,44490,44730,45403,45771,45675,45659,45211,44426,44026,43786,43290,42410,41722,40970,40489,40009,39001,38361,37945,37353,36889,36312,35608,35416,34920,34072,33832,33448,33240,33064,31879,31831,31239,31047,31047,31111,30759,30615,30295,30423,30455,30631,30679,30951,30727,30775,31175,30775,31431,31079,31175,30887,31079,31143,31303,30391,30423,30135,29847,29639,29479,29175,29271,28422,28791,28150,28198,28342,28390,27862,27942,27750,27590,27574,27830,27830,27238,27462,26758,26806,27286,27078,27062,26662,27206,26646,26710,26550,26774,26822,27110,26646,26806,26566,27110,26790,26950,26566,26822,26582,26406,26294,26694,26390,25830,26214,26454,26438,26166,26598,26934,27030,27398,27862,28246,29239,30263,31079,32295,34488,36120,37129,39017,40345,41450,42730,44122,44874,45787,46635,47003,46859,47371,46923,47019,46091,45531,45002,44202,43482,42250,41610,40953,40297,39593,39401,38089,37193,36744,36360,35512,35288,34632,34552,33576,32856,32776,32679,31847,32055,31927,31639,31591,31559,31367,31271,31735,31495,31687,31527,31687,31703,32295,32215,32279,32183,32023,32135,32247,32007,31639,31831,31367,31191,30855,30535,29991,30007,29447,29207,29271,29079,28695,27958,28727,27846,28070,28118,27654,27910,27830,27750,27670,27622,27654,27462,27542,26966,27238,27142,26982,26950,26950,26902,26694,26854,26422,26950,26742,26518,26374,26150,26470,26294,26582,26966,26710,27286,27078,27734,28070,28951,29847,31207,32279,33048,34632,35976,37097,38361,39625,40857,41290,42266,43098,43722,43962,43722,44042,43594,43290,43210,42666,42026,41322,41002,40585,39849,39145,38425,38153,37337,36824,36905,36072,35752,34728,34312,33624,33160,32904,32407,32055,31879,31687,31239,30935,30599,31303,30647,30743,30551,30743,30407,30823,31031,31239,30951,31431,31671,31543,31447,31847,31927,31511,31671,31543,31575,31783,31383,30599,30535,30199,30023,30087,29495,29127,28935,29111,28967,28582,28614,28358,28278,28502,28662,28871,28695,28102,27574,27718,27654,27702,27830,27446,27334,27478,27686,27174,27686,27590,27526,27542,27014,27462,27462,27350,27478,27286,26838,27462,27110,27078,27702,27398,27942,28518,28871,29607,30727,31511,32519,34184,35720,36712,38633,40281,41482,43018,44570,45387,46443,46987,47275,47675,47611,47755,47595,47307,46507,45723,45323,44682,43994,43162,42234,41466,40537,40857,40025,39113,38681,38281,38073,37513,37177,36392,36456,35272,35016,34824,34328,33640,33624,32856,32808,32391,32327,32071,31671,31639,31575,31543,31415,31511,31655,31495,31767,31191,31831,31063,31655,31623,31431,31399,30983,30743,30743,30215,30391,30279,29879,29623,29575,29207,28759,28230,28438,28118,27654,27990,28006,27494,27622,27462,27110,27286,27206,27302,27206,27238,26822,27046,26630,27334,26518,26470,26822,27446,27046,27062,27078,26614,26758,26406,26630,26422,26806,26854,26454,26822,26278,26726,26582,26662,26822,26454,26694,26438,26822,27126,27206,27398,28166,28614,29591,30679,31959,33016,34456,36344,37849,39913,41194,42186,43914,44570,45579,44010,42730,41930,41178,41130,40937,40953,40553,40425,40569,40457,39737,39865,39433,38553,38473,37657,37257,36392,36168,35080,35080,34024,34008,33256,32872,32583,32487,31959,31959,31495,31367,31815,31783,31559,31431,31927,31623,31911,31895,32071,31735,32103,31751,32023,31927,31319,31127,31175,31143,30871,30407,30663,30439,29655,29335,29079,29175,28775,28550,28582,28214,28630,28246,28470,27878,27846,28102,27814,27862,27606,27238,27558,27222,26774,27174,26934,26774,27078,26662,26406,26870,27206,26918,27158,27206,26950,26598,26854,26950,27238,27302,27286,27206,26902,26934,26822,26310,26470,26326,26422,26294,26774,26518,26550,26150,26422,26454,26758,26934,26790,27446,27926,28662,30087,30679,32263,33736,35208,36520,37929,40073,40953,42282,43594,44618,45403,45579,46267,46731,46315,46379,45547,44794,44506,43786,43050,42682,41674,40889,40697,39689,38745,38617,37913,37513,36632,36104,36280,35480,35032,34536,34536,33368,32776,33304,32423,32087,31831,31543,31223,31127,30759,30775,31175,30887,30855,30935,31447,31015,31367,31063,31207,31271,31463,31239,31335,31863,31015,30903,30951,31111,30599,29991,29911,30007,29463,29543,29223,28679,28759,28807,28550,28903,28614,28358,28166,28102,28182,28054,28326,27878,28150,27558,28006,27958,27830,27846,27494,27718,27590,27798,27558,28038,28006,27590,27750,27606,27414,27526,27750,27398,27926,27142,27494,27798,27366,27670,27094,27446,27206,27238,27062,27046,27462,26678,26790,27046,26838,27286,27526,27718,28102,28630,28743,29847,30567,32007,33048,34952,36104,37417,38969,39993,40889,42298,43130,44090,44586,44874,45115,45483,45147,44970,44426,44250,43610,42522,42058,40953,40761,39353,38761,37545,37673,36953,36056,35624,34632,34616,33768,33288,33032,32567,32263,32039,31623,31591,31015,31159,31079,31463,30871,31063,31223,30695,31191,30999,31799,31783,31671,31735,31783,31767,32263,32263,31943,31943,31543,31111,31687,31031,31255,30551,31031,30519,30055,29799,29479,28967,29255,28695,28214,28598,28550,28102,28230,28038,27990,27734,28118,28118,27398,27830,27382,27366,27014,27302,26950,27750,27446,27110,26646,26630,26198,26726,26550,27222,27014,26630,27014,26902,27238,26870,26758,27222,27142,27030,26470,26710,26966,27174,27398,28246,28903,30167,30375,31879,32663,33832,34824,36168,37017,38409,39545,40217,40986,41930,42090,42314,42538,42170,42410,42154,41658,41386,40489,39625,39449,39225,37897,36921,36776,36120,35272,34600,34152,33480,33128,33000,32183,32343,31943,31511,31191,30599,30359,29991,29943,30167,29783,30007,30055,30007,30231,30215,30359,30487,