40041,41370,42282,46107,47963,48923,51516,50460,49244,48299,44522,42426,40649,37177,36873,36008,34536,36008,35480,36008,37609,36776,38201,39065,37977,39385,39129,37977,39449,38681,37897,38793,36873,36760,37305,35240,36376,36280,35016,36552,36200,35512,36392,35288,35816,36744,35496,36584,36792,35512,36648,36184,35688,36873,36072,36504,38121,37417,39209,40953,40873,43322,44074,43914,45499,45050,44602,44986,42970,43114,42842,40953,41706,40953,40025,40970,40377,40153,40953,39689,40201,40601,39129,40505,40281,39321,37737,37561,36056,37113,38665,38441,40393,40921,39785,40953,39897,38761,39785,38057,37545,38617,36520,37849,37993,36648,38313,37945,37145,38361,37193,37289,37977,36776,37561,37593,36712,38745,39017,38969,41194,41626,43290,45531,45451,47547,48603,47627,48779,48187,46219,46827,44858,44074,44490,42330,42810,42618,41322,42458,42154,41242,42554,41818,41770,42634,41306,42074,42426,41130,42170,41962,40905,42266,41242,40889,41738,40489,40953,41578,40025,41066,40953,39737,40937,40217,39897,40986,40025,40697,41002,40009,39017,39593,38041,38185,38857,37241,38153,38665,37417,39001,38441,38057,39321,38281,38585,39689,38697,40393,41674,41322,43914,44954,45467,47915,47931,48187,49260,47259,47339,47035,44874,45275,43994,42314,43274,42410,42522,44090,43722,45387,46795,46555,48171,48187,47195,48043,46763,45867,46395,44682,44714,44906,43210,43738,42922,40873,40729,39001,37305,37737,35880,35768,36280,34968,36056,36520,35560,37001,36873,36856,38825,37913,38809,40169,39257,40601,40953,39993,41146,40393,39257,40025,38809,38841,39977,39161,40953,41962,41930,44122,44314,43290,43946,42810,42058,42298,39833,39993,39881,38601,39465,39001,38409,39337,38441,38233,39337,38057,39209,39849,39129,40857,40777,39993,41322,40681,40681,40970,39993,40297,40297,39129,40201,39817,39193,40489,39689,39753,40329,38825,39465,40233,39065,40537,40489,39801,40953,40521,40345,41322,40601,40953,41210,40089,41354,41098,40217,41050,40665,40121,40937,39769,40201,40953,40553,42154,43082,42650,44298,43370,42874,42954,40713,40009,39481,37689,37833,37529,36568,37769,38153,37033,38489,38841,38105,39481,39465,39209,40265,39257,39513,40025,39001,39801,40217,38857,39769,39209,37945,38969,37705,36664,37257,35624,36104,36568,35368,36792,37289,36776,38601,38649,39193,40986,40377,42074,42778,42250,43738,43482,42522,43754,43098,42570,43674,42762,43946,45083,44474,46235,47499,47899,51484,53164,55197,58718,60094,63039,63007,62991,63375,63247,62735,62959,63071,62943,63119,62863,62975,63599,62911,63039,63263,62847,63519,63439,62991,62031,59886,59246,59022,57710,58798,59518,58174,59438,58894,57966,58526,57165,56477,56205,54221,54253,53533,51564,52332,51532,50396,51340,50396,50284,51164,49820,50316,50268,48811,49628,48843,47659,48379,47275,47419,48395,47707,49996,52572,54045,58318,61839,63167,63119,63119,63279,63151,63039,63343,63343,63151,62895,62943,63167,63055,62479,58558,55597,51052,48987,47643,45083,46267,47051,46587,49115,49612,50396,51724,50780,50684,50956,48811,48347,47451,45018,45403,43802,42458,43482,41562,41834,42106,40697,41626,41338,40265,41482,40953,40377,41050,40137,39449,40633,39913,38985,40137,39129,39993,41914,42426,45387,48747,50012,53965,55693,56365,57998,57181,56093,55773,52556,51404,50204,46859,46811,45387,43402,44058,42858,42202,43146,41674,42794,43498,42666,44250,44330,43946,45611,45131,44490,45387,43466,43530,43162,40953,41146,40185,38345,39241,38121,37561,38761,37273,37737,38745,36889,38345,38057,36696,38041,37321,37001,38809,38537,40329,43242,44266,48075,51404,52252,55453,55981,55469,55821,53325,51564,50508,46555,45547,44266,41418,41930,40873,39721,40521,39097,39113,39577,37929,38841,39257,37897,39385,39177,38617,40041,39113,39145,39993,38617,39129,38809,36680,37065,35816,34536,35208,34232,33864,35048,33720,34632,34968,34008,35096,34904,33880,35560,35352,36056,38457,39113,42266,45547,47115,50716,53164,53549,55437,54557,53389,52796,49260,47595,46171,42858,42090,41306,39337,39945,38889,38489,39417,38201,38569,39353,37881,38665,38921,37817,39097,38857,38057,39129,37849,37961,38441,36136,36696,36232,34344,35272,34184,33112,33592,31623,31831,32487,31303,32599,33512,34504,34632,34200,36344,39385,40697,45018,48075,49420,52780,53469,53277,53917,51228,49644,48219,45002,44106,42442,39865,40665,39481,38297,39145,37577,37801,38489,37433,38569,39081,38361,39977,39865,39465,40713,39657,39833,40505,38473,38697,38601,36760,37433,36584,35224,36184,34888,34952,36104,34664,35528,36232,34712,36360,35848,34920,36232,35784,36840,38857,39081,42554,45899,48331,53293,56733,58510,61326,61198,59790,58974,54733,51548,48667,43834,42474,40425,38169,38665,37609,37305,38553,37865,38969,39865,39209,40953,40970,40201,41546,40953,40761,41114,39753,40121,40409,38825,39353,39177,37593,38761,37849,37065,38041,36889,37289,37721,36456,37209,37449,36136,37721,36969,36648,38569,38473,40633,43402,44346,48043,51164,52108,55389,56173,55645,56157,54221,52620,51308,47723,47035,45131,42570,42906,41482,40297,40953,39737,40153,40953,40041,41290,41834,41098,42666,43018,42682,43866,42890,42442,42730,41274,41258,40953,39225,40009,38857,37305,38057,36873,36424,37545,36328,36953,37305,36296,37609,37609,36248,37961,37673,36248,37833,39193,39257,43194,45211,47659,52124,53677,55917,58110,56925,57245,56077,52892,51804,48795,46043,45259,42634,41690,41754,39753,40521,40585,39385,40921,40601,40329,41962,41178,41738,43290,42202,43050,43450,41754,42986,42650,41242,42026,40857,40569,40905,38985,39577,39737,38585,39513,39305,38473,39849,39177,39225,39737,38585,39273,39833,38537,39433,39625,38825,40841,41722,43338,46923,48347,52252,55533,56557,59054,59374,58254,58030,55789,53084,51900,47979,46123,45163,42298,42426,41930,40473,41370,40921,40409,41754,41210,42186,43466,42378,43706,44090,42778,43914,42778,41914,42586,40777,40761,41210,39449,39865,39593,38185,39337,39081,38185,39049,38089,37865,39097,37817,38713,39001,37737,38809,38681,37737,39465,38153,38761,40377,39817,42186,44634,45755,50156,52956,55037,58398,58718,59102,59310,56621,55021,53084,49115,48107,45883,43562,43546,41674,40649,41050,39641,40409,41162,40345,42010,41898,41738,43354,42714,42826,43818,42762,43066,43082,41274,41946,40953,39721,40409,39433,38569,39065,37769,38201,39097,38281,37337,38489,37689,38201,39001,37561,38777,38633,37305,38601,38441,37929,39913,39849,41818,45291,46603,50572,53789,54509,57245,57582,56909,57053,54429,52444,50924,47115,45883,44634,42170,42202,41306,39977,41050,40473,40377,41418,40457,41498,41930,41290,42922,43210,42842,44122,43018,42682,43226,41162,41530,41530,39993,40505,39913,38361,39577,38825,37945,39433,38041,38409,38889,37417,38265,38345,37417,38681,38073,37657,38793,37689,38777,40217,40457,43370,45723,47307,51596,53709,55069,57454,57069,56813,56525,53597,52652,50652,47547,46955,44554,42762,42474,40841,40473,40841,39593,40585,40729,40297,41882,42154,42474,43834,43258,43818,44298,43130,43690,43290,41754,42538,41898,40601,40953,39785,39385,40137,38585,39401,39577,38569,40137,39497,38569,40201,39177,38745,39657,38633,39977,41434,41946,45707,48427,50652,55005,56829,58414,60382,59182,58878,57966,54973,53597,51164,47675,47067,44890,43418,43402,41402,41386,41738,40633,41626,41802,41258,43258,43018,43210,44810,43914,44570,45115,43354,44490,43946,42330,42090,41994,39865,40201,40505,39129,40361,39833,39001,40345,39273,38969,39833,38169,39385,39513,38473,40745,41866,43434,48107,50732,54445,58334,59934,62383,63455,61791,61455,59470,56285,55181,51756,49067,48395,45595,45002,45067,43098,43834,43418,42202,43402,42554,42522,43626,42698,43882,44570,43578,44874,44778,43322,44138,43050,42394,42650,40889,41018,40793,39001,39913,39913,38585,39897,39385,39177,40169,38761,39689,40297,38537,39721,40025,39401,41530,42970,45067,49500,52300,56477,60718,62319,63183,63087,62943,62911,62351,59614,57854,53597,50716,48955,45563,45291,44858,42714,43930,43162,42858,44234,43546,43418,44826,43418,44602,44842,43754,44874,44314,43210,44010,42650,42506,42922,41034,41242,41130,39321,40297,39753,39001,39785,38873,38857,39721,38313,39049,39881,38409,39785,39913,39129,40585,39449,39689,41146,40665,43018,45963,48155,53405,57245,59854,63199,63151,63343,62895,63439,62911,60558,56349,54365,51036,47307,46811,44634,43738,43914,42186,42554,43290,41754,43338,43706,42874,44778,44794,44762,45899,41514,40281,39881,38665,39817,40665,39817,41226,41018,40729,41514,39977,40105,40633,38617,39465,39497,38377,40425,39961,39657,40873,39929,40505,41514,40153,40713,40953,39609,40761,40649,40393,42778,44250,47531,52428,55517,60622,63199,63455,63199,63183,63375,63247,62991,63503,63215,59342,56589,52940,48171,47131,44778,42634,42938,41978,41642,43242,41866,43210,44058,43066,44586,44778,43786,44938,43882,43306,44170,42186,42426,42314,40505,41178,40809,39273,40489,39641,39145,40089,38985,39705,40473,39289,40281,40377,39273,40857,40345,39865,40953,39849,40713,40970,39977,40697,41098,39945,41098,40521,40089,40953,39849,40089,40681,39865,41322,43610,45227,50460,54173,57790,63407,63215,63183,63023,63215,63551,63023,63375,63071,63215,63023,63119,57822,53645,50508,45547,44170,43018,40889,41770,41626,41738,44042,44058,44650,46347,45259,46427,46715,45355,45723,44954,43178,43914,42250,41482,41754,40121,40409,40777,39513,40521,40569,39881,41178,40681,40505,41274,39753,40377,40970,40105,41050,41146,40249,41642,41226,40457,41130,41066,39833,41034,40905,40201,41482,40505,40713,41354,40361,41914,43946,44890,49884,53549,57374,62767,63391,63455,63071,63407,62959,62911,63039,63279,62911,63311,63215,58862,54493,51212,46571,44874,43866,41642,42714,43034,42410,44410,44074,44826,46139,45211,46187,46427,45083,45979,45339,43802,44202,42762,42010,42218,40569,41002,40953,39625,40505,40233,39257,40665,40041,39769,40905,39529,40553,40986,39753,40953,41066,39961,41178,40697,40313,40986,39817,40505,40953,39481,40393,40393,39449,40953,41354,42986,46603,49115,53853,58878,61214,63295,63263,63455,63343,63167,63279,63023,63199,62863,59966,54557,51500,48075,43994,43178,41722,40873,41930,41098,41898,43786,43162,44794,45515,44714,46187,45755,44762,46155,44666,44554,44602,42858,42954,42938,41162,41930,41066,40233,41130,40089,40265,40986,39529,40761,41226,40505,41562,41882,41018,42170,41434,41290,42282,41034,42138,42410,40970,42218,42474,41930,44650,45739,48603,53405,56109,60558,63359,63247,63391,63551,63103,63167,62991,62207,59806,54925,51628,48411,44826,42394,42634,40953,41322,42314,41610,42922,43674,42794,44730,44346,44058,45467,44298,44426,45002,43546,44458,44250,42506,43066,41802,40809,41258,39913,39529,40281,38601,39641,40121,39033,40761,40633,40041,41514,40953,40889,41530,40809,41354,42154,40970,41882,42058,41306,43306,43930,46155,50268,52492,57454,62351,63247,63183,62927,63327,63247,63167,63167,63007,63135,63119,59582,53581,50364,46683,42554,42074,40185,39513,40809,40201,41482,42842,42730,44538,45307,44746,46315,45915,45355,46555,44810,44842,45147,42554,43322,42634,40953,41738,40953,40025,40921,39881,40185,40825,39241,40297,40841,39561,41034,40937,40489,42042,41114,41370,42058,40889,42218,42954,43194,46747,49516,52572,57662,60558,63151,63247,63151,63103,62991,63279,63503,63007,62959,60286,54445,49548,46331,41178,39753,38313,36264,37961,38281,38569,41258,41914,43226,45531,45227,46395,47275,45915,47163,46651,45131,45771,44314,43402,43626,41834,41994,41866,40345,41098,41050,40233,41386,41178,40921,41866,40617,40777,41066,39673,40553,40409,39097,40601,40905,40249,42186,44922,47035,52396,56461,59950,63519,62927,63151,63071,63199,62991,63551,58606,55837,50924,45995,44058,40953,39689,39721,38233,39353,40169,39593,41658,42346,42730,45099,45131,45819,47403,46267,46875,47499,45275,45227,44378,41994,42202,40953,40089,40281,38825,39145,39609,38409,39641,39849,39641,41178,40937,40921,41930,40953,41514,42410,41226,42426,42762,43386,46747,49292,52188,57646,60334,63071,63247,63231,63087,62895,63023,63055,60654,55581,52140,46235,42554,40297,36776,36328,35416,34328,36168,36520,36873,39305,39833,40970,42986,42602,44378,45211,44250,45211,44282,43162,43578,42026,41418,41562,39865,40233,39977,38409,39209,39241,38041,39385,38457,38697,39865,38969,40041,40793,39785,40953,41018,40873,43162,43946,46811,51052,54077,59054,62799,62943,62895,63039,63007,63023,63423,63023,63087,58606,54205,49292,43034,40649,37705,35416,36248,35800,36760,39401,39705,42090,44746,44842,46811,47515,46619,47787,46635,46091,46235,43834,43674,43578,41722,42298,41802,40361,41322,40681,40089,40745,39449,38937,38857,37529,38009,41482,44458,49580,55789,60126,63439,62863,63423,62911,63071,63535,63167,63439,63247,62991,58334,53389,47947,41898,39465,36873,35384,36296,36520,38185,40953,41274,43754,45147,44954,46907,46891,46187,47323,46507,45963,46731,45067,45499,45627,43834,44474,43370,41882,42042,40745,39897,40473,38713,39849,40377,39401,40617,40953,40953,43418,45018,47691,52700,55709,60702,62943,63023,62975,63167,63263,63343,63247,61967,58830,52876,48363,44778,39913,38697,37465,35976,37865,38057,38729,40970,40986,42090,43482,42890,44474,44602,43434,44586,43594,42138,42938,41306,41386,41818,40441,40937,40873,39609,40953,40425,39721,40953,39865,39865,40601,39081,40073,40297,39561,41914,43594,45867,51148,54797,59486,63279,63263,62895,63007,63023,63407,62991,60702,57886,52156,47419,44186,39961,38825,38233,37081,39113,39833,40089,42682,43418,44170,45835,45387,46523,47035,45483,46683,46123,44330,44874,43498,42554,42570,40777,41002,41466,39929,41146,40953,39977,41386,40505,40457,41530,40297,40921,41242,40473,42634,45611,47531,51212,56397,59678,63375,63439,63215,63007,62927,63071,62511,57165,52348,48491,43418,41290,39721,37865,38953,39321,38841,41274,41674,42906,44922,44298,46171,46859,46027,47227,46379,44778,45323,44314,43514,44058,42298,42778,42842,41546,42826,42570,41642,42970,42634,42522,43658,42570,42906,43562,42138,43146,43226,43066,45915,47691,50780,55661,58254,62367,63263,63007,63263,62863,60078,57838,53004,48363,45579,41402,39913,39321,37609,38313,39129,38537,40505,40953,41482,43674,43450,44682,45787,44954,46395,46443,44618,45483,44682,43306,43738,42026,41674,41834,40009,40761,40857,39273,40777,40553,39977,41194,40425,40953,41658,40697,41658,42154,41866,44778,46891,49500,54573,58030,61759,63503,63167,63039,62943,63647,63327,59198,54349,51132,46315,42858,41498,38921,39001,39529,38697,40617,41386,41498,44026,44714,45595,47195,46795,47675,48187,46491,47307,46219,44890,45403,43738,42842,43418,41802,42154,42378,41018,42122,42010,40953,42538,41994,41770,43082,42506,43882,46475,48491,53164,57341,60990,63407,63503,63327,63247,63279,62943,63119,61919,56029,51916,45883,41434,39609,36584,36776,37593,37609,40281,41530,42554,45723,46027,46923,48219,46891,47659,47771,45851,46635,45771,44122,44666,43402,42426,42762,41194,41594,41930,40617,41706,41578,40761,42506,41626,41882,43882,44442,47819,52108,55613,61326,62943,63167,63135,63199,63375,63199,63135,63199,63119,62255,58222,52748,46395,43674,40265,38457,39273,38585,40377,42234,42266,44394,45547,45034,46859,46491,45979,47035,45627,45627,45883,44058,44474,44330,42266,42890,42090,41178,41658,40585,40937,41594,40601,41754,42282,41290,42714,42842,42570,45259,46443,49692,54717,58094,63023,63551,62975,63439,63391,62943,63071,63055,63327,63247,60926,57293,52236,46267,43754,41306,39497,40601,40249,40649,42666,41946,43722,44890,43962,45739,45867,44762,46155,45083,44586,45147,43434,43866,43898,42170,42778,42218,40953,42602,41434,41322,42650,41642,42522,43034,41994,42970,42458,41658,42762,42506,42394,43498,42346,43226,43546,42122,43098,43050,41818,43098,42154,42106,43226,42186,42522,43194,41930,42394,43178,41914,41722,43210,44170,48475,53244,57550,63023,63407,63455,63247,63055,62943,63295,62911,63423,63295,63023,63119,62991,63311,63247,63247,58894,52956,45243,40953,37929,35736,37465,39065,40265,43866,45483,46635,48363,47371,47931,47643,45387,45211,43930,41914,42634,41402,40953,42074,41066,41626,42538,41386,42570,42826,41882,43402,43146,42570,43354,42474,42506,43226,41770,42842,43114,41962,43322,42730,42138,43674,42570,42794,43466,42282,43594,43498,42458,43306,42826,42026,43034,42010,41898,43114,42826,45275,48283,51084,56813,61342,63087,63263,63087,62959,63199,63087,63583,63439,63503,63055,63279,62943,62911,57742,52412,47979,42650,40986,40233,39209,41546,42730,43530,46219,47067,47771,48731,47627,48155,47947,46187,46651,45947,44298,45195,43786,43482,43578,42090,42666,42842,42186,43722,43866,43210,44474,43866,43850,44602,43610,44042,44522,43242,44506,44746,43354,44682,44122,43514,44730,43530,44010,44458,42986,43978,43306,42010,43418,43818,44874,48155,50652,55421,60270,63199,63135,63183,63439,62975,62959,63247,62799,59838,53645,49916,46779,43162,42810,42602,41930,44058,44554,45483,47675,47851,48843,50252,48907,49836,49916,48443,49003,47899,46475,46795,44874,44522,44826,43082,43962,43754,42842,44106,43882,44042,45643,44762,45531,46731,46091,47339,48283,47835,49724,50060,49804,50748,49372,48715,48811,47179,47499,47835,47323,49772,51884,55085,60558,63423,63183,63007,62943,63087,62943,63007,63471,63343,63327,63295,63375,63343,63135,62911,63327,63151,59966,54701,48123,42202,40681,38281,38537,40953,41994,45227,48107,48859,51036,51292,49852,50444,48651,47019,46939,44858,45002,44986,43530,44826,44650,43962,45739,45243,46011,48795,50284,53741,57293,57966,60558,60142,57710,57069,53837,50828,49964,47755,47883,49452,49228,50300,49324,47467,47851,46171,45275,47563,48523,52284,57341,61711,63055,62895,62911,63231,63039,63295,63183,63439,62927,63359,63439,63407,61246,55085,51244,46347,42330,41418,39017,39065,40329,39625,41562,42698,42554,44538,44954,44010,45499,44826,45227,47211,47419,50236,52188,51244,51916,50620,47259,45963,43930,44954,43738,44714,44970,43114,44218,43946,43098,45067,45195,45643,47643,47195,49852,53917,55661,62095,59294,53309,59070,42330,224,288,352,288,208,288,304,320,224,224,272,18068,63375,63295,63295,63759,63759,63407,63279,63295,63343,63567,63583,63359,63199,63295,63679,63599,63679,63663,63727,63647,63631,64047,63647,63807,63519,63647,63375,63391,63311,63599,63311,63247,63583,63471,63775,63375,63919,63903,63311,63631,63343,63455,63631,63343,63791,63231,63855,63839,63295,63231,63439,63391,63519,63599,63887,63455,63663,63407,63423,63391,63599,63967,63567,63263,63391,63567,63439,63535,63599,63375,63391,63823,63327,63647,63551,63647,63807,63775,63391,63535,63295,63423,63631,63727,63455,63823,63247,63375,63407,63455,63663,63599,63439,63327,63951,63711,63503,63439,63647,63631,63887,63375,63311,63455,63535,63503,63583,63327,63647,63663,63407,63375,63727,63327,63823,63711,63903,63295,63791,63743,63519,63807,63311,63903,63967,63599,63567,63343,63919,63711,63551,63887,63631,63759,63247,63279,63423,63583,63295,63823,63839,63919,63471,63407,63727,63903,63407,63375,63535,64063,63359,63935,63439,63647,63375,63455,63631,63823,63535,63279,63327,63951,63311,63583,63423,63455,63391,63423,63855,63503,63823,63935,63951,63263,63407,63439,63295,63519,63471,63311,63519,63359,63311,63647,63535,64159,63375,63727,63567,63311,63375,63887,63583,63551,63311,63279,63727,63631,63631,63599,63247,63951,63391,63919,63311,63647,63199,63295,63631,63199,63807,63711,63295,63551,63967,63791,63679,63455,63215,63919,63295,63727,63375,63327,63695,63375,63343,63423,63679,63663,63823,63311,63599,63359,63455,63503,63279,63375,63343,63263,63631,63391,63967,63791,63439,63599,63519,63551,63423,63727,64015,63423,63551,63711,63711,63823,63615,63295,63183,63279,63295,63567,63855,63455,63327,57886,50892,44426,39593,36200,33624,32647,32952,33160,33896,34776,34744,35208,34952,35352,36296,37145,37321,37993,38041,38105,38569,38713,39337,39241,39257,39225,39145,38713,38281,38041,37593,37785,37545,37353,37721,37225,36776,36392,35192,35000,34952,34696,35496,31799,26406,25238,28134,33112,38953,43498,47515,50220,51532,52140,51708,50588,49180,47323,45083,43098,40970,39049,37193,34744,32808,31431,29895,27894,25638,22965,20997,19428,18180,17492,17076,16660,16564,15843,14851,14387,14147,14643,16147,17668,20116,22917,25526,28598,31959,34856,38105,40169,41706,43402,43658,43434,43466,43242,42986,43098,43418,43578,43962,43850,44298,44314,43994,43962,43530,42890,43082,43082,42634,41946,40953,39737,38633,37129,36120,35384,34312,33672,33624,33448,33448,33672,33544,34056,33544,33304,33480,33160,33224,34088,34328,35320,35512,35944,35944,36264,36072,35832,35768,35416,34904,34360,33112,32936,31927,31111,30791,30023,29735,29367,28727,28582,28502,28006,27974,28006,27926,27830,27846,27270,27654,27926,28054,28646,28695,28887,29239,28999,28727,28887,28486,27926,27558,27366,27574,27894,27910,28951,29079,29879,31543,33112,34600,35336,35256,35384,35832,37225,40121,44634,50348,56477,61551,63359,63343,63343,63599,63327,63279,63519,64063,63535,63503,63775,63199,62255,57390,51916,46987,34136,30759,27846,25494,23733,23189,23365,26534,32055,38153,43930,47899,49676,49452,48075,46283,44250,42090,40857,39641,38297,37145,36248,35400,34600,33768,32952,31767,30391,28807,26262,24245,23253,24598,28230,32856,37289,39977,39977,38137,35224,31287,25446,13795,176,208,256,224,176,208,272,192,224,288,64,352,224,336,144,304,160,224,336,320,176,240,144,192,160,320,224,80,224,256,224,272,176,224,128,96,320,96,192,256,304,64,272,208,224,208,208,208,160,176,320,256,208,272,288,272,208,240,176,224,224,256,176,192,256,128,176,192,160,304,256,192,288,224,288,224,160,208,240,160,176,288,224,320,80,192,224,256,224,144,272,160,256,192,224,160,288,272,272,96,224,176,176,160,144,320,144,96,224,272,240,320,128,272,176,144,208,256,352,208,208,272,256,288,288,304,64,208,192,288,208,240,256,208,224,304,304,384,256,304,288,384,224,320,240,176,3408,19220,32103,38665,41402,40057,36424,33064,29879,27414,27318,27430,28903,30487,30999,32391,32663,31991,32904,32920,32407,33640,33848,34264,35016,34776,35112,36184,35512,35896,35576,34856,34872,35464,35176,36184,36584,36520,37641,37769,38057,38841,38425,38601,38889,37913,38105,37913,37129,37337,37001,36632,36969,36232,36184,36712,35912,36296,36440,35752,36504,36520,36024,36792,36504,36504,37385,36232,36953,36776,36152,36792,36504,36088,36921,36568,36584,37321,36680,37161,37385,36760,37513,37481,36824,37401,36937,36696,37561,36680,36937,37385,36776,37865,38089,38233,39369,40105,40489,41498,41402,41546,41898,40921,40986,40841,39689,40233,39577,39129,39145,38105,38361,38377,37225,37641,37545,37161,38153,37993,37673,38409,37833,37785,38601,37753,38233,38137,37081,37897,37417,36840,37545,37017,36808,37209,36424,37145,37353,36648,37353,37321,36776,37385,36680,36632,37433,36680,37545,37721,36953,37849,37785,37097,37865,37385,37433,37897,36953,37529,37433,37017,37833,37721,36921,37993,38105,38697,39305,40009,40857,42154,42138,43546,43690,42938,43594,43034,42154,42138,40953,40905,40873,40201,40377,40105,39161,39689,38793,38361,38569,37561,37513,38105,37433,38249,38601,38297,39193,39193,38793,39001,38425,37513,38409,38329,37769,38489,38041,38281,38585,38089,38297,38425,37881,38441,38249,38025,38617,38345,38089,38777,37977,38105,38329,37785,38553,38489,37929,38761,38121,37993,38825,37961,38473,38953,38441,38793,38681,37961,38841,38057,37705,38713,38329,39097,40265,40873,42330,43434,43290,45131,45002,44842,45467,44682,44042,43530,42538,42570,42026,41514,41882,41034,40457,41130,40409,40265,40169,39289,39817,39897,39401,40217,40121,39769,40521,40281,40137,40361,39593,39865,40137,39529,39945,39689,39513,40169,39305,39433,40089,39321,39753,39849,39225,39609,39753,39225,40137,39177,39401,39913,39033,39897,39753,39193,39385,39209,38761,39081,38553,38201,38793,37801,38169,38569,37961,39209,39961,40473,42154,43434,44906,47003,47627,49099,50316,49660,50332,49708,48715,49164,48683,48459,49164,48827,49772,50668,50924,51900,52444,52284,52764,52588,52700,53597,53421,54157,54717,54685,54669,54861,54029,53997,52860,51772,51340,50284,48859,48523,46923,47035,46555,45275,45275,44490,43770,43802,43098,43018,43178,42618,42266,42506,42138,41994,42650,42026,42490,43018,42410,42666,42554,41834,41914,41690,41530,41834,41642,43098,44986,46683,50124,52876,55133,57870,58846,59182,59374,57662,56973,55485,53485,53469,52156,50732,50652,49772,48875,48523,47307,46763,46475,45067,45211,45259,44554,45547,45675,45643,46139,45179,45451,45547,43946,43946,43482,42186,42330,41722,41274,41482,40665,40633,41178,40601,40953,41130,40793,41418,41226,40953,41498,40953,40937,41162,40585,40953,41066,40297,40953,40569,40137,40953,40505,41002,42586,43034,45355,47403,47915,49756,50604,49884,49548,48315,47291,46555,44698,44314,43674,42442,42794,42202,41642,42298,41834,41354,42010,41530,41994,42458,42138,43082,43578,42970,44026,44074,43722,44186,43418,43738,43802,42634,42922,41930,40953,41194,40393,39449,39833,39481,39513,39865,38921,39753,39689,38921,39497,38953,38217,39097,38457,38553,38953,37993,38633,38697,38297,39369,40025,41370,44090,45883,48011,50588,51372,52428,52668,50972,50860,49228,48075,47563,45979,45067,44778,43114,43098,42106,40921,40953,38649,36953,38313,39513,40473,42010,43162,43098,43546,42122,41818,41642,40473,40281,40041,38889,39561,39161,38553,39449,38793,39049,39081,38137,38505,38585,37721,38361,38297,37929,38505,37929,38297,39193,39161,40169,41754,42586,44634,47019,48923,51116,52556,53405,54381,53325,52508,50652,48395,47387,46011,43754,43690,42506,41706,41306,40249,40089,40025,38713,39113,39305,38617,39625,39625,39849,40761,39993,40361,41066,40009,40745,40713,39657,40313,39657,38921,39097,38297,38217,38713,37641,37961,37593,37081,37641,37513,37337,37833,37289,37049,37689,37385,38089,38857,39257,41290,43114,45195,48283,49388,50780,52236,51212,51180,50140,47915,47307,45339,44186,43690,42202,41370,41114,39897,39689,39465,38313,39241,39001,38777,39913,39817,40153,40825,40825,41098,41610,40633,41242,40681,39961,40489,39881,39257,39753,38697,39385,39593,38377,39193,38857,38201,39113,38457,37897,38601,37817,38825,39705,40073,42650,44474,46507,49932,51468,53244,54285,53405,53036,52172,50172,48779,47531,45451,45419,43818,42970,43082,42458,40953,40585,40105,39385,40121,39913,40217,41050,40617,41274,41322,40777,41418,41386,40649,41194,40857,40313,40537,39529,39433,39513,38761,39033,38889,38457,39193,38489,38121,38617,37593,38377,38953,38953,40921,42570,44538,47771,50124,52380,54621,54957,55421,54925,52748,51660,50204,47963,47419,46187,45195,44906,43498,43370,43146,41850,41194,40953,40121,40857,40521,40409,41226,41018,41498,42042,41098,41786,41802,41098,41562,40953,40505,40937,39817,39625,39609,38841,39385,39257,38297,39241,38553,38297,39209,38393,38505,39609,39305,40777,42394,44314,47707,50668,52700,55309,55965,56173,56333,53981,52828,51628,49612,48443,46955,45515,45739,44458,43770,43674,42506,42138,41706,40953,41258,40970,40665,41354,41178,41226,42154,41562,42170,42298,41402,41562,41050,40153,40841,40233,39785,39929,39241,39385,39257,38729,39177,39241,38537,39401,39177,39145,39689,39081,39369,39721,39209,40345,41194,42234,44954,48027,50652,54189,55869,57341,57886,56621,56189,55021,52380,51612,49804,48155,47899,46603,46123,45963,44618,44762,44138,42554,41802,41866,40953,41546,42218,41674,42650,42762,42314,43082,42298,42154,42170,41162,41370,41210,40489,40681,40473,39657,40329,40025,39545,39993,39481,39865,40249,39305,39865,39913,39497,40473,39801,39289,39993,39225,39641,40073,39209,39641,39577,39097,39945,40937,41994,45147,48139,51212,54717,56509,58286,58558,57341,56909,54797,52892,51996,49820,48715,48315,46491,46475,45899,44554,44378,43018,41674,41834,40745,40505,40905,40297,40905,40970,40633,41610,41482,41002,41786,40953,40809,40953,39961,39993,40217,39049,39641,39321,38585,39225,38633,38825,39081,38745,38793,39225,38409,39081,39225,38841,39225,39369,39065,39753,39177,39625,39369,38713,39369,39209,38265,39193,38745,38809,40409,40953,43866,46923,49115,52908,55389,56589,57934,57710,56493,55693,53629,51756,50268,47979,47611,46683,45419,45659,44746,43818,43850,42474,42538,42250,41658,42522,42938,42282,43482,43930,43978,45002,44474,44538,45034,43482,43882,42954,42186,42378,41722,40809,41050,40489,40281,40729,39961,40121,40393,39721,40409,40585,40425,40617,40697,39689,40137,40249,39241,40137,40201,40361,41786,42842,44954,47931,49548,52476,53965,54365,55437,54685,53405,52700,50796,49244,48539,46667,46203,45707,44218,44298,43210,42442,42330,41690,41210,41834,41130,41450,41786,41146,42218,42250,41866,42442,42266,42138,42602,41290,41802,41354,40873,40953,40937,40233,40809,40153,39865,40281,39593,39849,40105,39609,40169,40025,39337,40105,40201,40073,40585,39977,40409,40921,40329,40953,41738,42234,44426,46987,48955,52060,53517,55181,56845,55965,55981,55005,53277,52668,50940,49884,49452,48107,47595,47323,45851,46091,45355,44250,44362,43546,43066,43914,43210,43210,43770,43066,43626,44058,43082,43802,43658,42826,43418,42458,42458,42890,41914,42266,42378,41530,42442,42314,41818,42970,42538,42890,43194,42042,42506,42602,41946,42666,42458,42026,42938,42538,42346,42666,42010,42442,42522,42074,43610,44650,45771,48843,50108,52028,54253,54701,55821,56157,54989,54877,53597,52156,51740,50092,48811,48619,47355,47195,47003,45387,45195,45211,43834,44602,43722,43546,44490,44554,43674,42122,41562,42986,43498,44298,44954,44618,44538,44762,43562,43578,43690,42602,43194,42906,42042,42810,42506,42314,42554,41882,42554,42506,42378,42970,42842,42298,42698,42298,42698,43802,43498,44618,46267,46779,48971,50188,50492,52172,52044,51740,51868,50380,49900,49548,48251,48427,47931,46651,46843,46043,45723,45723,45002,45099,45291,44474,45371,45643,45323,46059,45739,45755,46171,45595,45515,46107,44730,44842,44746,43834,44762,44426,43802,44618,43882,43898,44250,43290,43914,44234,43402,43818,43530,43146,43802,43162,43306,44122,43626,43786,44346,43434,44730,45323,45611,47147,48011,49180,51388,51436,52956,53341,52332,52396,51372,50380,50204,48971,48555,48555,47467,47595,47643,46555,47131,46859,46411,47035,46859,46619,47259,46539,46875,47387,46283,46955,47067,45867,46491,45755,45403,45739,45002,45002,45579,44506,44762,44810,44202,45002,44970,44794,45307,44762,44810,44970,44106,44410,44682,44426,45018,44522,44218,44874,44714,45595,47051,47355,49340,50396,51084,52892,53389,53036,53389,52652,52428,51692,50604,49436,49404,