42010,39321,36424,33624,30023,27318,24565,22101,20084,18580,17044,15939,14851,13683,12755,11842,11138,10322,9618,9362,9458,9250,9906,10002,10258,11138,11330,12034,12611,13203,13747,14115,13923,14291,13971,13667,13267,12563,12002,11826,11346,11202,11554,11554,12178,12691,13347,13875,14003,13987,13891,13091,12835,12499,11954,12050,11922,11538,12547,13955,16516,20613,24565,29815,35096,39705,43370,46299,47291,47403,45899,43146,39865,35096,29655,23973,17380,11186,5121,272,208,192,304,192,256,224,288,240,208,288,224,208,208,304,256,2960,5089,7361,8226,9218,10130,9938,10034,9954,9394,8674,8177,7169,6753,5601,4865,4321,3296,2912,2784,2688,2752,3328,3472,4032,4673,5313,6721,8242,11858,16179,21317,27734,34488,40825,46811,51548,55005,57341,57341,56637,54621,51404,47883,43674,39257,35112,30871,26966,23621,20629,18372,17124,16227,16083,16388,17076,18260,19140,20180,21509,22005,22549,22741,22581,22325,22325,21813,21397,20757,20260,20164,19780,19364,19076,18436,18052,17412,16692,16131,15555,14739,14403,13747,13523,13795,13667,13763,13827,13667,13411,13955,13859,14531,16339,18372,22197,27046,32824,39993,47035,53805,60302,63215,62767,62895,63119,62911,62863,63199,63071,62911,63007,62607,62975,62655,63071,60574,57181,53325,49500,46619,44234,42250,41402,40297,40217,39849,39497,39097,38809,38025,37273,36168,35032,34136,32615,31671,30743,29303,28054,26774,25414,24565,23589,22709,22037,20805,20292,19908,18948,18372,17588,16612,16275,15507,14771,14787,14115,14051,14643,15811,18532,22485,27462,34088,41162,48651,55965,61663,62687,63135,62783,63087,62991,63023,63247,63151,62847,60398,55901,50716,46491,42074,38841,35864,33432,31671,30935,30151,30263,30503,31191,33128,35608,39065,43834,48683,55517,62111,62815,62719,62959,63215,62719,63087,62719,63263,62879,62671,63151,62799,62751,63007,58174,53228,47787,42682,38633,34536,32071,30151,28550,28118,27670,28054,28983,29959,31623,34328,37401,41610,46779,52252,58414,62719,62799,62863,63199,63119,63407,62815,63071,62703,63039,63055,62799,63007,63151,61278,55261,48619,42330,36905,32135,27750,24614,22709,21013,20388,20565,20549,20837,20661,20436,20260,20004,19220,18852,18068,17060,16147,14947,14419,13859,13443,13139,12899,12162,12002,11282,10802,10754,10466,10802,11090,11154,11570,11650,11298,11234,10066,9138,8498,7345,6817,7153,7745,10418,14467,20212,27590,35240,43738,51820,58158,62927,62751,62895,62783,63231,62799,62879,58974,54605,50044,45531,41194,37849,33960,31303,28695,26854,25734,24598,23877,23957,23653,24053,23957,23589,23381,23109,22661,22277,21765,21301,20885,20036,19140,18436,17124,16003,14659,12963,12130,10738,9954,9698,9218,9266,9954,10338,11170,11922,12419,13363,13875,14227,15283,15395,15715,15939,16051,16564,17524,19348,23077,27798,34712,42506,51084,59278,62719,63119,62687,62991,62687,63087,63071,62815,62943,62863,62735,62799,62783,62863,63199,63119,63151,60430,52844,45995,39577,34136,29959,26422,24069,22837,21589,21205,20773,20292,20741,19988,19908,19780,18996,18772,18532,17796,17540,17156,16804,17172,17028,17444,18468,18724,19652,20661,21413,22469,22997,23589,23893,23973,23877,24021,23189,22389,22053,21573,22421,24614,28214,33624,40953,48331,56525,63295,62799,63311,63199,62815,62815,62703,62991,62767,63071,62703,62943,63023,62767,62799,62751,63103,63279,62751,62735,63327,62879,57117,50604,45515,40745,36792,34024,31575,30087,28775,26518,24982,23205,20709,18964,17124,15363,14531,13395,12867,12723,12371,12323,12226,12098,12611,12947,13235,14083,14483,15171,16195,16916,17812,18820,19444,20565,21125,21701,22117,21957,22277,24069,26198,30615,36520,43114,51148,58462,63007,62767,62847,63151,63087,62767,62991,62815,62783,63167,62687,63071,63151,63231,61791,55069,47819,41690,36152,31207,27590,25078,23845,23957,24357,24870,26502,27286,28438,29015,29159,28887,28246,26710,25766,24405,22789,21845,20420,19284,18452,17828,17684,17748,17636,18196,18820,19716,21141,23301,25686,28743,31831,35752,39161,42634,45659,48555,50492,52140,52748,52876,52364,50892,49548,48811,48459,50092,52828,56717,61919,62783,62783,62927,63167,63039,62927,63039,63007,63199,62911,63167,62815,63023,63215,63023,62895,61166,57838,55245,52860,49051,48267,48443,48587,48811,47835,46107,44378,41658,38825,35944,32135,28775,25526,22597,20132,17940,16259,15235,14387,13747,13699,13539,13699,14371,14611,15411,16115,16708,17828,18580,18996,19540,19172,18724,18004,16580,15491,14163,13235,12579,12082,12034,12723,13491,15779,19844,24870,31591,39353,46715,54669,61086,63151,63119,62879,62911,62831,63295,63183,63135,62991,60494,55645,50380,45291,40089,35544,31623,27590,24918,22885,20837,19876,19140,18676,19220,19332,19508,19668,19108,18580,17876,16708,16195,15059,13571,12899,11730,10690,10482,9650,9394,8754,8194,8065,7313,6961,7105,7009,7521,8354,9250,10210,11666,12419,13203,14307,15075,16147,16484,16708,17156,16884,16676,17028,17316,19124,21957,26550,33000,40665,48875,57341,62783,63055,62863,63167,62735,62831,62815,63199,62783,63279,62863,63055,62767,62991,56893,49964,43338,36953,31671,27062,23333,21189,19860,19492,19940,20228,21221,21829,22069,22581,22021,21285,20501,19252,18036,16692,14979,13875,12947,11602,11010,10034,9442,9234,9058,8802,9282,9394,10066,11154,11410,12130,12835,12963,13651,14099,14099,14499,14387,14499,15683,16596,19092,23701,28935,36536,44986,53741,62287,62863,63215,62751,63023,62783,62911,63007,63087,63023,62863,62831,62975,62751,62831,62831,61711,54397,46347,39241,32824,26710,21285,16003,11266,8177,5633,4097,3616,3472,4032,5089,6321,7697,8930,10114,11650,12323,13155,14179,14611,15699,16820,17732,19188,20196,21205,22325,22981,23557,24309,24293,24469,24565,24533,24630,25030,25174,25814,26534,27094,27718,28438,29719,32647,36072,41866,48523,56349,62687,63215,63423,63007,63007,62991,62847,62959,62879,62847,63215,63103,62783,62783,63071,62767,63167,62815,62831,63183,63119,62991,63055,62879,57838,50796,43626,37913,33048,28390,24565,21733,19268,17492,16067,14643,13747,12899,12291,12194,11954,12130,12771,13107,13731,14755,15667,16644,17172,17556,18196,18100,17924,18116,17700,17540,16996,16147,16099,15587,15395,15763,15923,16307,16884,17060,17172,17540,18212,20693,24213,29335,36280,43562,51612,58958,63071,62879,62879,62703,63247,62927,62879,62735,63215,63023,59966,55245,50844,47083,43322,40009,37385,35048,33544,32904,32695,32968,33768,34360,35432,35992,36296,36408,35848,35272,33960,32391,31159,29543,27318,26022,23845,22421,20661,19476,18068,17076,15939,15075,14147,13411,13123,12499,12034,12547,12258,12355,12691,12547,13155,13379,13331,14179,14291,14995,16259,17620,20533,24630,30279,37817,46363,55629,62751,63263,63039,62767,62911,63039,62815,62991,63039,62751,62991,63023,62911,62927,63247,63279,63055,63151,62879,63199,63087,63071,63135,58286,53100,48171,43386,39801,36424,33288,30807,28679,26550,25046,23397,22277,21925,21285,21717,22853,24245,25958,28150,30263,32455,33688,34616,35016,34728,34088,33128,31943,31127,30727,30551,31271,32695,35928,40777,46827,53965,61983,62767,62767,62975,63167,62831,63071,63327,63023,63039,62735,63087,62879,62751,62895,63279,62863,63311,62831,63039,56701,47883,40409,33688,29095,26182,24565,24742,25494,27062,29383,30743,32551,33288,33048,32279,30999,29287,27590,25798,24085,23093,21701,20420,19524,18484,17668,17220,16708,17060,16772,16019,15315,14739,14083,14483,16163,19076,24213,30279,37401,45323,51788,57630,61535,63231,62783,62751,59982,56941,53052,49083,45883,42570,40425,38569,36504,34984,33368,31655,30055,27974,25910,25078,24197,23733,23589,23461,23621,23253,22677,22117,21269,19972,19172,17412,16355,15811,14739,14483,14787,14483,14579,14515,14147,14403,14051,13763,13699,13587,13635,12835,12483,13107,14627,17652,22949,28358,35304,42730,49484,56029,61230,63183,63135,63039,62991,62815,62895,59550,54317,47947,42186,37209,32824,29895,27494,26214,26854,28006,29463,32311,34840,37673,40297,42058,43482,44122,44090,44010,43146,42122,41114,39193,37705,36056,33672,31847,30503,29719,29591,29399,29895,31127,32055,32936,33336,33768,34072,34776,35688,38681,42170,46475,51804,56717,61903,62959,63295,63327,63327,63119,62895,62975,63263,62911,62863,63007,62799,62703,55757,49340,42570,37401,33016,29079,27110,25798,25782,27030,28695,31431,34424,36969,39577,41242,41626,41898,40986,39353,37561,35000,32423,29703,27174,25334,24149,22789,22645,22485,22117,26646,28326,32279,36632,40953,45579,49452,52476,55245,56141,55869,54461,51756,48715,44762,39769,34472,28919,22549,16323,9698,3856,256,208,256,208,272,288,240,256,288,336,320,336,224,352,256,224,256,256,256,144,272,288,144,288,240,192,192,304,208,256,224,272,3792,13235,23013,33496,43402,51916,59230,62847,62911,62783,62783,63151,63039,62815,58910,54685,49468,44650,39705,35432,31847,28582,26118,24982,24197,24373,25110,26326,28646,31383,34264,37881,40857,43434,46507,48267,49452,50348,49756,49035,47547,45419,43162,40665,38057,36504,33944,31959,30647,29159,27798,27270,26662,27734,29207,31255,34984,38937,42826,47067,50380,53821,56781,58526,59886,60750,60078,59406,57325,54957,52316,49035,45803,43018,40361,38537,36696,34920,34056,33256,32679,33160,33128,33528,33384,32952,32135,30503,28134,25382,22533,19524,17284,14883,13107,11826,10466,9602,9170,8898,9346,9602,10626,12643,14467,16516,19172,21397,23765,26038,28695,32679,37033,41818,47771,53645,59870,63375,62927,62815,62911,63311,63263,62815,62831,62959,62831,63119,62735,62783,63183,63071,62895,57934,52540,46603,41866,37929,34008,31655,29719,28198,27942,27286,26662,26070,24726,23845,22677,21189,20068,18708,17252,16484,15299,14211,13267,12307,11922,11874,11762,11922,11826,11618,12066,12082,12579,14995,17892,22533,28326,34792,42314,49820,56125,62287,62943,62927,62847,63215,63151,62719,63119,60446,55741,50732,46507,42138,38889,36664,34568,33592,33896,33576,33944,33784,33544,33288,32215,31271,30247,28166,26134,24245,21525,19284,16948,14627,13011,11442,9954,9266,8770,8370,8658,8594,8594,8866,8482,8562,8450,8177,8258,8097,8113,8370,8642,9506,11058,13411,17076,21173,26054,31559,36889,41402,45323,47563,49324,49836,48747,47435,45131,42490,40361,37657,35400,33448,31319,29511,27782,26054,25094,24229,23013,23141,22613,22933,24005,24565,25446,26726,27318,28422,29095,29207,29591,28887,28230,27478,26454,25318,24405,22597,21141,19636,18132,17060,16051,15555,15331,14883,15155,15187,15251,15763,16388,16612,17540,17828,17956,18644,18708,19348,20965,23077,26582,31463,37945,45099,55181,62239,62767,63263,63103,63087,62863,62751,63055,62911,62895,63007,62863,63199,63071,62879,63263,63007,63247,63183,62815,63039,62831,62895,63071,62991,63327,62863,61807,55005,48395,41738,35976,31383,26822,23557,20949,18628,17108,15747,15171,15283,15123,15315,16003,15715,16339,16404,16452,16964,17204,17252,17764,17636,17796,18148,17812,17684,17636,17444,17588,17300,16836,16740,16532,16676,17700,18980,21269,24710,28342,33048,37801,42058,46155,48891,51452,52700,52652,51660,49948,47691,44826,42282,39609,37049,33992,31463,29111,26630,24421,22565,20725,19700,18852,18388,18772,19524,20645,22837,24678,27670,30983,34200,37513,40665,43146,45547,47963,50364,53773,57822,63247,62943,63135,63391,62959,63183,62895,63263,63039,63119,62927,62911,63359,63119,63151,63087,62783,62895,63199,63007,63295,63135,63071,63023,63039,63295,63199,62895,63167,63279,63039,63407,63375,63039,63183,62943,63135,63039,62879,62927,63055,63183,63023,63391,62943,62991,63423,63215,62991,63023,63295,63263,63135,63151,62943,62991,63231,63199,62911,63151,63359,63039,63247,63151,62911,62991,62895,63263,63439,62831,63279,62879,63295,63007,63199,63295,62831,62783,62815,62959,63407,62975,62927,62895,57806,42186,29143,18500,10658,6497,4497,4257,6273,8834,11554,14595,16371,17748,18084,17716,17092,16355,15539,15267,15139,15059,15715,16227,16532,17252,17028,17476,17604,17028,16628,15939,14979,14387,13123,11410,10386,8690,7601,6513,5377,5441,6017,6737,8418,9890,11730,14163,15491,17812,19412,20148,21061,21685,21893,22325,22501,22485,22885,22213,22197,21669,20677,20164,20036,19988,20901,21909,23477,25510,26694,28358,29191,28727,28438,27734,26758,26678,27030,27478,28614,29319,30343,30871,30935,30919,30743,30087,29959,29351,28951,28839,28614,29255,30263,31367,32856,33416,33912,34088,33416,32231,30535,27990,25014,22229,18612,15267,11842,8658,6689,5089,4369,4353,4513,5537,7105,8177,9410,10754,11874,13379,14531,15571,17540,18900,21461,24485,27350,31319,35672,39689,43930,47547,50828,53325,54989,55773,55661,54557,52636,50172,47339,44378,41626,38857,36953,34472,32503,30567,19732,16115,13827,12307,11682,11778,12611,14339,15539,17284,19412,20084,20901,21445,20901,20661,20709,20404,20837,21253,22165,23621,24181,24998,26598,27046,27750,27974,27686,27798,27430,27110,27526,27718,28903,30695,32776,35384,37993,40217,42826,44362,44874,45227,44138,42522,40649,37657,34904,32071,29111,26646,24822,23509,23013,22197,21541,21493,21189,21125,20789,20052,19412,18740,17828,17732,17252,17028,17844,17764,18244,18660,18564,18484,17956,17156,16275,15283,14099,13443,12787,12419,12339,12371,12835,13571,13379,14003,13955,13827,14371,14979,16275,18900,22021,26326,30823,35496,40105,43706,46635,48843,49308,49051,48299,46235,44074,42026,39641,37593,34952,32567,30935,28294,26134,24854,22997,22293,21429,20789,20965,21157,21253,22485,22949,23429,24165,23829,23509,23237,21493,20837,19748,18692,18484,17620,17460,17700,17684,18084,18756,19300,20052,20789,21253,21941,22245,22613,23269,23717,24565,25542,27830,31063,35880,40953,46827,53869,62335,62895,63119,63263,63535,63279,62783,63263,63279,62959,62943,62927,63375,62863,63039,62863,63311,63391,63151,63151,63327,62895,63103,63039,62831,63103,63087,63311,63279,62863,62943,63007,62959,63231,63423,63279,63167,63423,63391,62991,63087,63247,63295,62751,62959,63375,63247,62879,55005,44266,34104,24565,15299,7521,864,176,272,224,320,336,272,256,1984,7313,12579,17284,21093,24101,25782,26278,26534,25686,24469,23381,21637,19844,18596,16804,15763,14931,14147,14115,14531,14515,15843,16820,18260,20821,23013,25430,27702,29175,30215,30423,29751,28518,26326,24405,22709,20517,19284,18212,17444,17508,17652,17796,18484,18612,18980,19364,19220,19108,19380,19412,19668,20260,20228,20933,21317,21989,23941,25894,29191,33576,38041,43242,47963,52204,55789,58190,58910,59342,58254,56333,53981,50956,48075,45018,41994,39897,37449,34776,32824,30695,28775,27078,25494,24373,23493,22229,22245,21669,21493,21541,20965,21045,21077,20821,21237,21749,21989,22789,23445,23989,24806,24854,24870,25014,24630,24533,23781,23125,22549,21797,20789,20661,19700,19172,19252,18916,18820,18756,18580,18708,19428,20693,24357,28823,33896,40537,46523,52060,56861,59950,61759,62287,60958,58910,56397,52892,49388,45995,42410,39817,36744,33800,31159,28711,26598,24854,23173,22437,21781,21765,22629,23141,23973,24886,25702,26534,27222,27110,27270,26630,25750,24886,23653,22197,21013,19972,19732,20180,20949,23237,26598,30375,35256,39497,42970,46667,48875,51484,53821,56621,60606,63023,62911,62863,62927,62911,63391,62959,63327,62863,63391,63071,63039,63327,63087,62879,62911,63055,63023,58590,50092,41754,34344,27830,21893,17476,13635,10450,8578,6657,5057,4625,4161,4625,5793,7041,8994,11074,12515,14435,15763,17028,18580,19012,19428,19508,18756,18564,17236,15699,14435,12387,10578,9842,8658,8194,8177,8177,8674,9266,9474,9554,9186,8578,8177,6737,5761,5185,4097,3760,3984,3904,4401,4513,4705,5217,4753,4369,4016,3472,3520,4032,5313,8386,12995,19220,26934,34984,43130,51276,58078,63439,63231,63135,63327,63135,63135,62767,63119,59838,55101,48907,43194,36680,29655,23317,16708,10610,6065,2320,304,272,336,1120,3504,6193,9058,11954,14179,16948,18372,19652,20148,19796,19140,19028,18260,17620,17604,17108,17252,17332,17252,17828,18388,18404,19236,19492,19876,20629,20452,20757,21029,20725,20693,20260,19764,19284,18884,19140,20244,22357,25862,31015,36744,42842,49083,54669,59534,62895,63215,63199,62815,59598,55821,50620,45227,39465,33272,27622,21429,15315,10322,5729,2560,656,288,384,1120,3600,7265,11522,16644,23093,29575,36664,43658,49660,54925,59214,62111,62831,63247,63087,62815,62831,62943,63071,63087,63151,62879,62879,62799,56125,48603,41514,34504,27798,21957,16179,11906,8177,4993,3152,2848,4145,8001,12739,19652,27542,35672,43674,50828,55981,59598,61006,61118,59662,57534,54445,51644,47787,44458,41706,38345,35544,32679,29591,26902,23877,20949,19108,17124,15715,15123,14403,14771,15379,15699,16580,17460,17892,18756,18948,18964,18964,18692,18436,17844,17028,16708,16355,16259,16692,16740,17412,18164,18436,19428,20340,20661,21605,22069,22485,23461,23733,24261,24662,24485,24565,24565,24614,25830,27718,31159,36873,43034,51036,59422,63103,62959,62959,63327,63183,62735,62991,62895,62943,63007,63343,63087,62783,63279,63279,63023,56397,47803,40521,33304,27526,23365,19908,17828,17108,16291,16355,16692,16692,16916,16836,16516,16259,15315,15107,14611,13747,13251,12707,12595,13139,13363,13603,14691,15331,16131,17284,17620,18100,18564,18452,18788,18532,18356,18644,18068,17972,17876,17044,16468,16147,15475,15795,17108,19924,24790,30647,38569,46603,54765,62239,63151,63071,62831,62991,62751,62815,62799,62815,62863,63023,57341,50524,43402,37321,31463,26310,22597,19364,17236,16147,15619,16259,17444,18996,21301,23141,24565,26566,27686,28711,29191,29255,29207,28326,27606,26918,25942,24646,24309,23109,22421,22469,22197,22405,22693,22869,23557,23397,23349,23509,22917,21765,20901,19092,17156,15091,15251,16660,20917,26518,34200,42890,51308,58894,62991,63135,62943,62735,63039,62767,63151,62975,62687,58350,52076,46027,39817,34072,29351,24565,21141,18660,16468,15843,15331,15363,16548,17540,18836,20501,21669,22837,23845,24101,24614,24485,23861,23509,22677,21717,21029,19844,19204,18308,17444,16820,16612,16452,16307,16724,16916,17412,17620,17588,17988,18308,19284,22357,26038,32055,39817,47723,56381,62991,62799,63055,62847,63247,63343,63039,62863,62911,63055,63119,63039,62751,62767,61278,54061,47019,40201,34120,28823,24469,21461,19924,18836,19172,20260,21813,23989,25222,26822,28118,28310,28406,27574,26246,24838,23285,21285,19588,17892,16436,15267,14019,13523,12899,12323,12291,12082,11698,12162,12467,12467,13027,12723,12771,12931,13587,15587,18916,24069,31271,39465,48443,57470,62991,63087,62783,63135,62767,62783,63007,62911,63167,62943,63263,62911,62975,60462,53677,47339,40953,34680,29767,24918,21189,18516,16404,15267,14547,14563,15203,15795,16804,17684,18212,18516,18820,18516,18116,17572,16708,15843,14995,14291,13667,13011,12755,12515,12483,12291,12835,13123,13635,14483,14579,15139,15603,15875,16371,16404,16436,16612,16692,17556,19476,22469,27926,35160,43818,54045,62959,62815,63279,63151,63055,63279,62959,62863,62895,62959,62815,62863,63055,63199,62895,62799,63135,61471,53341,44986,37257,29495,24197,20212,18260,17524,17124,17956,19188,20004,21717,22213,22853,23573,23045,22933,22325,21173,20501,19524,18644,18532,18068,17796,18052,18100,18484,18916,18676,19204,19108,19188,19940,19796,20244,20260,20308,20645,20917,21973,24565,28839,34456,42186,50140,58718,63183,62815,63231,62927,63071,63167,63263,63087,62863,62959,62815,62735,63055,61374,53084,44314,36616,29415,23605,19796,17092,16115,16612,17636,20164,23701,26966,30807,34392,36905,39225,40169,40009,39513,37593,35208,32487,29207,25910,23045,19780,17492,14979,13331,12226,11330,11298,12002,12499,14099,15827,18196,21861,26070,31863,39433,46539,54221,61679,63167,63167,62863,63295,63215,63295,63039,62879,62943,63215,63183,61022,58094,55453,52588,50412,47979,44698,41706,37737,34008,30663,27062,24245,22181,20613,19940,19508,18580,18132,16628,15315,13731,11746,10178,9138,7857,7457,6929,6705,7153,7313,7377,8065,8177,9122,9618,10242,11186,12258,12947,14259,15043,17092,20132,24533,30727,38457,46667,55325,63023,63087,62895,63247,63199,63039,62767,63087,62975,63007,63087,62959,63231,57646,51148,44506,39129,33800,29335,25766,23109,21349,20517,19988,19988,20661,21189,22069,22565,22901,23685,23621,23957,24726,24966,25590,26710,26838,27574,27894,27350,27222,26310,25398,25270,24293,23477,22949,21893,21333,20661,19444,19108,18948,19684,23093,27798,34952,43674,52636,61583,63215,63135,62735,62783,62943,63071,62831,63055,63247,63167,63247,63039,59982,53517,46299,39849,34248,28342,24277,20917,18580,17428,17156,17108,18100,19156,20004,21461,21941,22469,23205,22597,22181,21525,20436,19972,18628,17572,17140,16452,15955,16388,16115,16708,17364,17684,18628,19540,20228,21237,21477,21541,21925,21701,21781,22885,24646,28070,33864,40745,49051,57341,63135,62911,63151,62863,62943,62991,63199,63135,63007,63039,63119,63263,63055,55581,47627,40281,32856,26822,21381,17252,14515,12611,11794,12419,12867,14307,16211,17652,19524,20533,20821,21173,20837,19924,19012,17300,15779,14291,12579,11554,10706,9890,9858,9618,9602,10162,10114,10722,11474,11602,12355,13411,13427,14259,14547,15235,16916,35384,42634,51564,59614,62847,63023,63279,63071,62895,62799,62879,62927,62943,63311,63327,63183,57341,49740,42794,36760,30711,26566,22501,19940,18900,17764,18132,19028,19492,20613,21685,22181,22789,22789,22469,22293,21653,20789,20052,18868,17956,17428,16468,16259,15507,15171,15539,15075,15043,15059,14819,15363,16371,17860,21317,25622,31543,39257,46475,54045,61118,63295,63071,63039,62879,63199,63311,63039,63007,63279,58814,53148,46747,40953,35560,30199,26134,22485,19668,18212,17380,16932,17636,18196,19300,20741,21413,22949,23781,24005,24453,23845,23125,22597,21541,20388,19236,17412,16115,15123,13715,13411,12515,11858,11778,11346,11826,13059,15027,19092,24565,31191,39817,48443,57229,62767,63343,62911,62927,62767,62799,63343,63119,63119,62991,62895,62927,62959,63055,56557,48555,41754,35240,29463,25302,21957,19780,18980,18164,18404,18900,19492,20292,21237,21077,21765,21717,21333,21429,20837,20356,19908,19092,18724,17972,17204,17108,16836,16388,16676,16051,16420,16980,18308,21333,25862,31639,39385,46859,54173,62943,63087,62895,63279,62799,63167,62751,62815,63023,63343,62831,60958,55469,49180,43194,37833,32343,28278,24341,21509,20116,19284,19236,20164,20741,22101,22949,23765,24565,24678,24742,24870,24806,24565,24453,23877,23893,23877,23221,23077,22501,22037,21781,20933,20436,20228,19700,19252,19348,19028,20052,22037,24726,29799,36040,43658,52172,59534,62943,62959,62927,63119,63183,62959,63199,63311,62943,62863,63039,63103,63327,60334,54349,47755,41178,35976,30871,26806,23861,21685,20693,20709,20693,21829,23093,23733,24565,24582,24678,24565,24037,22981,21973,20773,19924,18596,17796,17380,16516,16291,16163,16259,16452,16868,17428,17748,17972,17972,18372,18148,18052,17972,18324,19636,22629,26582,33208,41018,49308,57886,62719,63263,63071,63135,63039,62767,62927,63039,63343,63039,63071,62927,61022,53821,46123,39497,33448,27686,24053,20757,18932,18228,18212,18676,19988,20981,22277,23109,23525,23749,23845,23093,22549,21541,20116,19284,17652,16740,16131,14915,14787,14739,14131,14691,14755,15011,15683,15587,15795,16323,15843,15427,15827,15939,17204,20052,24229,29911,37529,45371,54157,61855,63087,62815,63295,63167,62927,62975,62815,62959,63055,62863,62975,58670,51900,44698,38041,32583,27350,23749,21205,19236,18708,18820,19508,20501,21493,22709,23733,24133,24517,24614,24021,23765,22629,21733,20933,19588,18484,17828,16628,16371,15939,15427,15395,15523,15491,16019,16019,16788,18468,21061,24934,30551,37353,45387,53869,61214,62895,62879,62863,63135,62799,63215,63135,63199,63295,63263,63135,57662,50092,42474,36296,29511,24614,21093,18020,16820,16516,16452,17332,18612,20164,21845,22949,24485,25046,25382,25526,24918,24005,23237,21845,20821,19652,18260,17140,16259,15187,14915,14467,13987,14099,14467,15251,17716,21237,26374,33336,41354,50060,58254,63135,62751,62895,62815,63135,62799,63215,63311,63119,63311,63071,60334,53709,46683,39737,33880,27926,23301,20052,17620,16388,15923,16404,17588,18692,20004,21605,22421,23141,23717,23141,22965,22037,20677,19700,18324,17236,16404,15267,14563,14403,13827,13939,14003,13619,14179,14467,15411,17780,22869,28566,36568,45579,54829,63199,63343,63151,63279,63039,63039,63183,63087,63295,62943,63039,62815,62863,63503,61599,53789,45787,38793,31895,26550,22389,19124,17764,16404,16644,17332,18116,19284,20565,21173,21861,22197,22021,21717,21141,19892,19156,17908,16932,16355,15763,15443,15251,14787,15171,14947,15203,15587,15459,15587,16051,16404,18244,21717,26118,33352,42138,51548,61487,62911,62911,63119,62783,63055,62783,63007,62927,63119,62943,63119,63135,63215,63119,60670,52044,43066,34456,27414,21301,16596,13891,11874,11698,12467,13587,15427,17444,18612,19908,21029,20869,21157,20452,20004,19732,18884,18356,17828,17028,16932,16307,15971,15939,15363,15347,15427,15235,15587,15875,15699,16147,15971,15907,16179,15923,15875,16804,18164,22037,27542,35176,44954,55325,63263,63087,63135,62895,63519,62991,62895,62927,63151,62831,63199,62767,62959,63327,62831,62879,59326,50236,41546,33480,27174,22053,18340,16676,15699,16051,17156,17892,19204,20452,21333,21925,22277,21765,21685,20805,19684,18708,17220,16067,15251,13923,13603,12595,12451,13075,14675,16323,17828,19188,19668,20629,22549,24854,29143,35752,43434,52844,62031,63311,63215,63151,63199,63007,63055,63071,63103,62815,62911,63167,62799,62927,62927,55869,47115,38009,30279,24437,19268,16195,14499,14291,15123,16243,17988,19668,21157,22613,23461,23461,23749,23269,22277,21765,20356,18996,17908,16724,16019,15555,14643,14675,14211,14083,14467,14291,14563,15027,15123,15779,17236,19604,24213,30311,38681,48475,58334,62783,63135,62735,63311,63215,62831,63119,62783,63295,63295,63391,63135,62959,63247,63071,58686,49372,40953,33016,25862,20949,16676,14531,13667,13427,14547,16003,17460,18820,19924,20645,21349,20837,20645,20196,19124,18228,17252,16179,15395,14531,13523,13347,12451,11954,12226,11906,11938,12323,12307,12835,13411,14547,17428,21781,28422,37177,46907,57534,62735,63103,62911,62767,63087,63087,63039,62895,63087,63279,62943,63135,62783,62895,62735,63311,56701,48203,40153,33064,26870,22245,19476,17652,17316,18452,19556,21349,22757,23813,24710,24565,24469,23973,22405,21221,19524,17316,16131,15315,14179,13891,13747,13523,14307,14723,15395,16548,17316,18132,19108,19508,19652,19892,20164,21477,23685,27446,34248,42266,51708,61759,62943,62831,62959,62895,62767,63167,62895,62815,62943,63087,62975,62879,63247,62991,63343,57358,47819,38553,31015,23781,18228,14659,12194,11218,11570,12002,13603,14947,15971,17252,17156,17284,16964,16227,15155,14339,13123,12643,12034,11154,11058,10658,10402,10690,10322,10498,10754,10898,11522,12098,12451,13139,13219,13347,13507,13443,14499,16948,21205,28102,36889,46667,57486,63215,63279,62767,63263,62943,62943,63151,63311,63119,63215,63151,63343,62783,63327,58286,49051,40153,31623,24902,19892,16227,14371,13731,14019,16035,17572,19604,21365,22773,24085,24565,24293,24245,23221,21989,20965,19396,18308,17188,15747,14915,14611,14147,14339,14419,14355,15187,15171,15411,15843,16275,17812,20645,24565,30999,39305,48491,58782,62927,62959,62751,62911,63199,63071,62959,63151,63087,63279,63007,63311,62959,63087,63119,54173,45002,36424,29591,23877,19620,17700,16259,16596,18100,19924,21637,24133,25734,27334,28727,29351,29383,29111,28166,27174,26006,24405,23189,20853,19300,18100,16532,15651,14995,14051,13795,13571,13123,13187,13411,14227,16532,20613,26854,35032,44714,55693,63295,63119,63215,62911,62895,62815,62783,62847,62815,63071,63119,63023,62943,62863,62895,57774,49420,40521,32824,25958,20036,16131,13315,11586,11362,11954,12931,14883,16420,17860,19604,20260,20693,20725,19908,19444,18676,17492,16836,15587,14979,14483,14051,14099,14211,13907,14131,14307,14163,14787,14739,14659,15379,16740,19748,25142,32311,41738,52172,62687,62831,63311,62863,62687,62991,63327,63327,62735,62959,63199,63023,63151,62863,63343,62895,62927,62751,62911,62895,53949,44842,36408,29895,24565,21045,19124,17700,17588,18372,18836,19876,20709,21013,21573,21077,20581,20180,19524,18884,18596,18100,17812,17604,17588,17988,18180,18356,18756,18596,18820,19268,18884,19012,18772,18948,20020,22085,26262,33192,41306,51580,62127,63295,62815,62831,63247,62879,63375,62959,62815,62879,63071,63183,62975,62847,62927,63295,63167,63055,54893,45979,37817,30151,25094,21013,18356,17412,16788,17252,18260,18612,19172,19620,19396,18980,17620,16131,14643,12547,10674,9058,7553,6721,6353,6193,6721,7217,8177,9394,10242,11522,12899,13747,14563,15411,15715,16420,16147,15763,15891,16035,17556,21381,26790,35112,45275,56141,63071,63055,63167,63071,62927,63183,62863,63135,62927,62815,63247,62927,63071,62879,63247,63215,62927,62767,53485,44250,36376,29815,25062,22101,20292,20308,20677,21317,23109,23829,24469,24565,24149,23573,22453,21125,20020,18468,17284,16420,15875,15507,15651,15811,16596,16980,17476,18612,18692,18932,19252,18868,19172,19844,21013,24245,29191,36072,45147,54685,62831,63071,62959,62783,62991,63023,62815,63263,62815,63295,62831,63135,62783,62831,63135,62831,54221,44826,35848,27910,22069,17764,15043,14291,14339,15571,17508,19172,21189,22853,23781,24389,24213,23573,23141,21413,20116,19156,17252,16355,15587,14803,14627,14339,14115,14611,14627,15187,15427,15443,15891,16163,16355,17828,20533,24774,31959,40841,51372,62607,63071,62895,63039,62831,63295,63151,62943,62815,63375,62911,63295,63247,62895,63135,59406,49644,40633,32135,25350,20324,16596,14595,13955,14035,15267,16323,17540,18708,19044,19380,19876,19252,18916,18612,17492,16868,16147,15331,14995,14483,14227,14131,13843,14163,14419,14595,14883,15363,15619,16388,16916,18660,22181,27094,34632,43994,54397,63055,62863,63503,62863,63199,62943,62959,63071,63055,63247,63071,62943,63135,62831,63343,63055,63039,62991,57534,48091,39657,31623,25654,20885,17620,16291,15715,16211,17204,18180,19332,19956,19892,20196,19876,19412,19972,19636,19428,18948,17956,16932,15891,14675,13811,13155,12627,13059,13139,13875,15363,16980,18900,21029,22805,24598,26406,28038,31303,35672,41610,49372,57742,63007,63167,63231,63055,62927,62815,62943,63151,62831,62799,63167,63423,63391,63279,63023,63135,63071,63007,52892,43418,35016,27158,21509,17796,14867,14131,14659,15715,17876,19588,21269,22821,23621,24373,24421,23701,22885,21781,20533,19572,18308,16740,16147,15107,14611,14483,14131,14275,14675,15107,15715,16291,17284,17780,