63263,63007,62767,62959,62991,63247,63231,63055,63119,62959,62927,63199,63311,62863,62943,63247,63327,63199,63007,63103,63215,62895,62895,63199,62991,62927,63023,63247,63279,63007,62991,63247,63071,62959,63455,63327,63423,63023,62991,63375,62927,63119,63407,63391,62863,63007,62927,62863,63247,62879,63199,63135,63007,63183,63375,63151,62911,63151,63039,63391,63391,63199,63471,63023,63055,62911,63007,62911,63023,63023,62991,63023,63311,63087,62991,63007,62943,63215,63455,63215,63327,63023,62895,63375,62959,63263,63343,63135,63151,63327,63119,63215,62831,63263,63183,63279,62895,62927,63183,63439,62991,63327,62959,63023,62927,63279,63135,63263,63119,63199,62911,63103,63407,62991,62959,63151,62927,63007,63071,63247,62911,62959,62943,62911,62863,63327,62879,63439,63119,63183,63087,63359,62975,62959,63391,63391,62991,63247,63183,63167,63263,62975,63343,63423,63151,63087,63055,63391,63135,63423,63199,63295,63023,62991,63343,63311,63263,63423,63343,63055,62895,63151,63311,63167,63199,62943,62879,63247,63119,62959,63039,63151,63135,62991,62831,63375,63151,62943,63407,63199,62959,62911,63023,63119,63167,63423,63071,63215,63359,63007,63119,63119,63023,63327,63151,63183,62959,63199,63199,63183,63007,63039,62991,62911,63279,62991,63215,63263,62975,63183,63039,62943,62927,63247,63199,62959,63023,62943,63023,63039,63263,62991,62847,63231,63247,62895,62895,62959,63023,63183,63039,63167,63423,63135,63295,63183,63151,63087,62927,63407,63199,63183,63039,62927,63023,63167,63263,62879,63183,63327,63407,63087,63407,63183,63311,63167,63263,62879,63199,62911,63407,63407,63119,63215,63343,63311,63343,62879,63007,63183,63055,63439,63199,62943,63135,63407,63407,63071,62815,62927,63231,63055,63087,62911,62879,63471,62959,63295,62911,63199,63215,62895,63343,63407,63343,62895,62991,63375,62863,62799,63343,63039,63087,63503,62991,63071,63231,63023,62959,63023,63183,63183,63167,63247,63023,63439,62895,63151,63231,62799,63247,63183,63007,63311,63135,63199,63167,63167,62895,62847,62847,63279,63167,62911,63023,62831,63023,62911,63519,63055,63087,63167,63183,63199,63167,62959,63295,63247,63039,63199,63455,62879,62895,63167,62943,62895,63151,62959,63311,63199,62911,63375,63279,62895,63311,63087,62879,63007,63071,63055,63151,62895,63135,63119,63407,63183,63071,63167,62863,63087,63023,63039,63343,63023,63247,62847,63103,63375,63119,63007,62911,63039,63247,63439,63343,62863,62863,63199,62863,63503,62863,63247,62991,63295,63055,62911,62959,62959,63039,63199,63215,62927,63167,63439,62943,63215,63087,63039,63039,62959,62975,62959,63055,62959,62879,63135,63375,62927,63375,63311,63279,62863,62927,63135,63023,63407,62927,63167,63455,63295,62911,63119,63119,62911,62911,63295,63439,62943,62847,63199,62927,62863,63055,62815,63167,62863,62879,63023,63007,63311,63199,63199,63055,63247,63135,63279,63039,62815,63503,63151,63007,63007,63039,63087,63391,62943,62959,63167,63087,63215,62927,63199,63151,62831,63183,63295,63167,62911,63167,62943,62927,63247,63007,62927,63231,62943,63135,63391,62991,63167,63359,62879,63119,63247,63199,63215,62911,62911,63407,63071,63183,63391,62911,62975,62943,63327,63199,63407,62895,63087,62943,63199,63215,63263,62943,63055,63439,63183,62927,63183,63567,63199,63247,63167,63151,62991,63183,62959,62895,63247,63343,63183,63279,62927,62943,63455,63151,62799,63311,63263,63071,62895,63071,63055,63343,63039,63055,63375,63391,62815,63247,63135,63391,63135,62927,62895,62959,63199,62895,62879,63279,63279,63375,62879,63295,63247,62975,63055,63151,62975,63311,62975,62991,63407,63247,63055,63135,62847,63135,63199,62863,63183,63263,62943,63455,63199,63455,62911,63263,63055,63471,63183,63279,63135,62911,63023,63055,63135,63119,63375,63135,63119,62959,63311,63087,62911,63167,63023,63039,63055,63295,63087,62991,62927,63391,63327,63183,63087,63119,63183,62911,62959,62943,62911,63263,63007,63375,63087,63311,62991,62879,62911,63327,62895,62991,63375,63023,63407,63039,63327,62831,63151,63423,62927,62879,62895,63135,63007,63007,63087,63215,63151,63375,63455,63103,63263,63263,62959,63135,63039,63039,63199,63167,63423,63167,63183,63423,63343,62959,63471,63343,62911,63327,62991,63279,62991,63071,62991,63295,63167,63503,63247,63183,63119,62959,63279,63071,62991,63119,63039,62991,63343,63087,63343,63199,63151,63007,62911,63263,63455,63231,63391,63247,62943,63311,63151,63391,63039,63567,63023,63551,63231,62959,63535,63279,63599,63215,63407,63087,63279,63199,63247,63567,62959,63391,63407,63391,63055,63055,63455,63295,63183,63503,63567,63455,62943,63199,63135,63071,63167,62959,63471,63055,63183,63375,63327,63423,63295,63311,63551,63119,63055,62991,63279,63231,63247,63215,63375,63023,63151,63327,63343,63167,63263,62991,63135,63071,63295,63231,63151,63183,62991,63343,62959,62991,63167,63311,62751,63119,62703,62943,63087,63039,35688,176,208,256,288,160,192,192,45931,63215,63135,63295,63119,63567,63455,63423,63471,63599,63263,63663,63519,63791,63247,63343,63183,63439,63471,63519,63375,63247,63215,63183,63631,63311,63247,63503,63903,63599,63599,63647,63247,63407,63583,63247,63439,63343,63247,63247,63551,63551,63583,63887,63327,63711,63727,63615,63551,63279,63199,63583,63519,63327,63183,63551,63263,63295,63263,63791,63375,63279,63279,63823,63439,63535,63839,63423,63599,63567,63727,63567,63279,63583,63391,63327,63247,63711,63199,63391,63711,63679,63887,63695,63711,63775,63519,63295,63535,63455,63599,63279,63423,63535,63519,63327,63295,63695,63551,63535,63855,63199,63359,63807,63407,63551,63855,63807,63567,63695,63391,63311,63663,63519,63551,63247,63791,63247,63375,63295,63375,63887,63775,63279,63407,63503,63775,63471,63247,63215,63327,63279,63343,63343,63599,63535,63631,63647,63311,63519,63279,63391,63311,63903,63407,63167,63295,63647,63759,63183,63551,63583,63199,63551,63471,63215,63631,63327,63247,63279,63647,63711,63535,63471,63599,63151,63135,63263,63247,63007,63119,62959,63343,63119,63311,63087,63391,63039,63039,63263,63007,63087,63503,63039,63231,63039,63199,63183,63247,63631,62863,63391,63119,63103,63583,63455,63007,63519,63055,63551,63503,63199,62879,63455,63327,63119,63279,62943,63119,63279,63311,62943,63263,63327,63247,63583,63071,63519,63567,63311,63503,63039,63359,63631,63039,62991,63007,63375,63247,63087,62959,63375,63311,62911,62799,63119,63215,63183,63183,63455,63023,62927,63599,63119,63183,63263,63391,63263,63279,63295,62959,63215,63311,63423,63215,63199,62895,62959,62863,62991,63215,63455,62959,62943,62879,63135,63135,63167,63039,63407,63039,63263,63279,63215,63151,63055,62991,63215,63423,62975,63327,63263,63231,63327,63199,62959,63343,63087,62943,62927,62783,62879,62991,62991,63375,62847,63119,63071,63071,63391,63263,63135,62927,63039,63007,63023,63135,63439,63119,63055,63535,63007,63423,63167,62911,63295,63247,62879,62943,62799,63343,62927,63199,62879,63375,63135,62927,62927,62927,63167,63343,62799,63375,63327,62879,63247,63135,62959,63247,62927,63327,63263,63151,62927,63375,63023,62911,63215,63103,63439,63199,63199,63471,63279,63119,62911,63151,63103,63375,63439,63183,63343,63087,62991,63279,62991,62895,62975,62991,63583,63295,63039,63087,63407,63503,62991,63247,63039,62959,62895,62831,63375,63135,63375,62895,63375,63263,63007,63151,63023,63007,63119,63007,63215,62943,63087,63135,63375,63007,63279,62911,63039,63119,62895,63503,63135,62895,63215,62863,62895,62895,63263,63119,63263,63055,62879,63183,62879,62991,63119,63199,62911,63263,62991,62911,63167,63247,63055,63311,63391,63167,63119,63231,62943,63199,63423,63295,63183,62959,63199,62927,62879,62815,62959,63007,62879,63375,63071,63151,63087,62943,63039,62815,62879,59934,384,64,208,208,192,272,304,320,256,208,144,26246,63055,63119,63471,63023,63247,63135,63247,63375,63535,63535,63135,63391,63247,63567,63839,63279,63631,63519,63247,63327,63247,63855,63439,63823,63439,63247,63439,63455,63263,63407,63599,63631,63535,63439,63471,63439,63311,63343,63951,63887,63407,63215,63759,63695,63247,63215,63439,63791,63295,63183,63807,63311,63199,63647,63343,63375,63503,63503,63551,63823,63535,63903,63599,63615,63791,63743,63375,63663,63199,63519,63279,63775,63167,63471,63295,63263,63455,63471,63647,63455,63279,63503,63375,63311,63519,63503,63903,63263,63583,63279,63231,63295,63887,63375,63567,63535,63455,63327,63407,63711,63711,63455,63263,63087,63679,63375,63423,63423,63247,63807,63775,63295,63215,63663,63679,63263,63759,63407,63327,63295,63279,63423,63247,63679,63775,63519,63455,63295,63183,63215,63663,63679,63423,63295,63503,63439,63359,63135,63199,63023,63295,63503,63343,63455,63407,63023,63407,63039,63087,63055,63599,63039,63055,63119,63295,62911,63103,63167,62975,63471,63215,63215,63407,63295,63087,63055,63551,62927,63135,62911,63407,62815,63183,63439,63455,63135,62943,63151,63167,63407,62943,62943,63119,62927,63103,53549,31543,10130,272,176,368,304,256,384,256,272,256,272,256,272,272,224,304,192,320,240,352,192,224,288,192,144,160,192,256,256,176,192,224,240,240,336,192,256,224,208,256,256,144,112,272,176,288,256,144,256,240,128,208,208,288,208,208,160,192,240,208,208,160,304,272,288,64,256,288,288,208,272,176,256,352,224,336,176,224,272,96,304,160,240,400,224,256,256,256,144,304,256,320,288,224,256,256,160,160,240,192,304,224,256,240,288,352,256,208,304,272,400,256,272,176,112,368,288,176,272,288,176,304,304,224,336,192,224,272,336,256,272,144,352,288,256,288,224,304,256,256,224,208,208,288,320,160,208,256,352,128,176,192,208,384,288,352,192,208,192,240,304,256,192,272,192,112,192,176,336,240,144,400,256,400,416,176,352,224,160,64,304,272,272,7969,18308,27606,36280,42938,48555,53004,56397,58318,59710,59918,59822,59342,58302,57037,55053,53036,50316,48171,45163,43738,42474,40041,38857,37209,34104,32247,28630,22709,18580,12707,4769,160,272,288,208,288,336,288,224,208,240,96,176,208,272,112,80,288,272,320,144,208,352,208,272,224,256,272,304,288,224,256,400,368,288,208,256,240,320,192,272,256,320,256,288,272,192,320,192,256,304,208,288,160,336,224,160,336,272,272,208,160,224,192,272,384,288,288,240,272,272,288,240,304,272,224,272,224,320,336,224,352,288,208,192,304,256,256,288,336,3824,18948,36440,59566,62879,63263,62911,63055,62863,63087,63007,62863,63439,63007,62975,63103,63103,62911,63087,63279,62879,62831,62991,62911,63039,62975,62879,63199,63167,63231,62879,63135,63167,62863,62943,63391,56109,41914,24565,6193,240,224,272,144,208,272,256,304,256,112,224,304,352,256,304,400,256,240,176,208,272,320,240,272,192,256,304,256,192,192,240,208,224,224,160,320,208,240,320,352,80,240,256,336,288,144,304,160,224,224,256,256,288,224,224,256,352,176,176,288,256,256,128,320,352,224,288,256,224,240,208,272,144,224,240,288,256,176,256,304,240,272,304,256,224,272,224,256,336,4161,18596,34056,50732,63151,62895,63119,63055,63119,62895,63375,62959,63151,63215,63119,63151,63119,62991,63119,62911,62991,62895,62815,62911,63071,62783,63023,59230,49996,35272,17156,256,288,208,224,272,288,304,240,352,240,80,256,288,224,240,208,224,192,208,256,176,304,192,3136,24630,48971,63151,63135,62879,62943,63151,62911,63007,63135,62911,63119,62927,63135,63279,62783,62959,62815,63119,63263,63407,62943,54941,45002,32904,19348,7633,288,320,336,208,304,272,336,176,272,208,192,256,320,256,192,5313,10674,18340,24822,30423,37689,42058,45387,49019,49852,49276,49516,48011,45867,46171,44810,44474,46187,48171,51900,58174,63551,63071,62943,63199,63119,63055,62959,62959,63327,63023,62879,63007,62927,63215,63343,63455,63135,62879,63247,62799,62911,63327,63247,63295,63151,63343,62959,63183,63279,62911,62911,63199,62975,62927,62911,63407,62799,62991,63071,62831,63215,63391,63007,63183,63023,63135,63279,57806,49131,38729,27254,17556,8610,560,416,224,160,288,6257,12307,21765,31447,40377,50988,59582,63007,62943,63135,62943,63407,62863,62911,62271,56893,49740,44090,37001,29159,24021,18004,13027,11042,9746,9010,11810,14467,18100,24213,28727,33032,39145,42842,45531,48795,49852,49372,49051,46683,43498,41498,37593,33592,31399,27446,24325,23029,21045,19908,20789,21029,22325,24902,26326,28630,31815,33224,35096,37417,38217,39801,41242,41450,42586,45211,46747,50364,54877,58510,63327,63295,63183,62847,62911,63135,62879,63119,63151,63135,63279,63311,62927,63039,63327,63247,63183,62959,63327,62927,62927,62911,63167,63023,63391,62943,63391,62927,62991,62879,62895,63183,63135,63151,63279,63439,62831,63023,63439,63039,63279,63231,63055,62927,63135,63311,63455,62831,62911,63247,62943,63071,63471,63087,62991,63151,63199,63135,63199,62991,63263,62831,63423,63183,63311,63039,62895,63183,63247,63151,63055,57341,46139,28839,10210,256,320,224,272,192,288,192,320,272,304,272,320,176,352,304,192,272,352,208,176,192,272,176,256,256,256,192,144,352,192,224,256,352,288,272,272,144,208,208,304,304,272,352,208,192,80,256,19364,48667,62959,62991,63247,63391,63263,63135,62991,63039,62879,63071,63279,63263,50476,46331,41194,24598,23109,17380,6897,8450,6401,176,128,256,160,288,288,368,256,224,272,304,352,320,272,176,208,288,304,320,288,224,2480,5057,480,352,224,224,288,288,240,304,224,272,224,304,272,192,192,192,14595,30935,50892,63375,62895,62815,62927,62927,63375,63151,62815,63279,63423,63279,63135,63535,62975,63119,62911,62911,62911,63119,62895,63423,63519,63663,63647,63119,63327,63391,63695,63343,63439,63663,63695,63455,63647,63519,63791,63967,64063,63807,63903,63487,63791,63871,63583,63599,63279,63807,63423,63791,63263,63695,63519,63807,63519,63295,63759,63423,63647,63423,63647,63887,63679,63983,63983,63663,63455,63455,63935,63695,63423,63631,63791,63247,63311,63855,63711,64047,63535,63407,63423,63423,63903,63455,63439,63551,63903,63567,63599,63679,63903,63727,63279,63391,63695,63663,63551,63887,63471,63311,63439,63583,63807,63903,63887,63743,63519,63951,63455,63679,63327,63855,63791,63599,63823,63423,63471,63695,63407,63311,63519,63375,63567,63823,63983,63311,63711,63887,63855,63311,63343,63407,63839,63519,63311,63663,63807,63279,63263,63823,63471,63583,63471,63807,63647,63343,63711,63503,63583,63679,63199,63519,63439,63551,63295,63519,63711,63695,63631,63567,63503,63919,63503,63967,63807,63343,63455,63567,63839,63551,63279,63695,63343,63775,63327,63295,63679,63455,63295,63839,63951,63535,63279,63583,63407,63855,63231,63695,63583,63631,63375,63295,63439,63279,63423,63599,63519,63583,63295,63679,63647,63519,63407,63471,63519,63967,63583,63439,63551,63823,63631,63743,63663,63439,63327,63567,63583,63871,63759,63295,63823,63263,63887,63583,63711,63679,63359,63967,63743,63935,63327,63295,63519,63935,63407,63423,63599,63647,63407,63327,63631,63887,63695,63615,63983,63375,63823,63423,63823,63711,63695,63391,63343,63759,63839,63263,63391,63791,63759,63327,63503,63423,63311,63791,63439,63375,63663,63855,63663,63423,63871,63503,63631,63711,63919,63519,63423,63439,63583,63631,63327,63807,63327,63839,63247,63679,63983,63327,63583,63455,63295,63535,63807,63279,63583,63567,63599,64047,63647,63759,63631,63679,63695,63615,63455,63695,63775,63631,63279,63375,63503,63471,63391,63663,63887,63311,63375,63759,63679,63295,63903,63855,63423,63327,63887,63631,63599,63343,63679,63839,63423,64015,63935,63551,63551,63807,63263,63663,63391,63663,63807,63263,63711,63503,63455,63375,63807,63423,63503,63935,63343,63839,63823,63551,63935,63679,63903,63663,63903,63295,63711,63247,63311,63695,63823,63391,63615,63583,63935,63631,63311,63391,63631,63919,63263,63919,63263,63327,63823,63439,63663,63935,63471,63759,63631,63391,63551,63775,63295,63583,63807,63679,63311,63791,63407,63455,63215,63599,63583,63471,63087,63007,63343,63055,63263,63183,63503,63711,63439,63375,63279,63279,63423,63071,63423,63263,63039,63503,63599,63087,63423,63535,63375,63119,63423,63007,63407,63407,63407,63215,63295,63055,63071,63071,62959,63423,63471,63071,63327,63055,62991,63231,63039,63087,63087,63199,63471,63423,63599,63055,63231,63279,63327,63327,62959,63375,63119,63151,63327,63023,63455,51676,32183,14035,240,304,288,272,192,160,368,272,336,384,192,208,336,160,288,256,256,272,416,272,224,336,192,288,272,208,256,256,160,224,272,288,304,272,368,160,240,320,272,272,320,288,272,176,224,256,192,160,288,288,208,240,208,224,176,208,176,256,256,208,272,6065,14819,26166,36568,45627,56029,62943,63375,62991,63007,63215,63135,63167,63375,62943,63087,63247,63039,58686,53036,48539,42698,36200,31495,26310,21429,18772,15363,13155,13139,12803,12963,15763,17428,19892,24117,26726,29911,33896,36840,38825,41754,43178,44186,45675,44570,44186,43866,41514,39945,38713,35400,33576,32055,29239,26038,24293,24405,24341,23333,24902,25910,26550,29223,31015,32087,35112,37065,37689,39961,40745,40889,41738,42010,41098,41674,41018,33608,32311,29991,28406,28470,27926,28038,30055,31239,32487,35208,36616,38169,40889,41850,42970,45275,45563,46219,47275,46859,46763,46955,45739,45147,45115,43354,42986,42906,41450,41706,41754,40953,41866,42954,43018,44426,46283,46539,48139,49980,49820,51532,52652,52044,53148,53565,52140,52060,51260,49164,48827,47723,45259,44954,43978,41610,41626,40953,39385,40121,39769,38921,39913,40009,39657,41066,41706,41242,43034,43290,42586,44314,44522,43850,45163,44778,44138,44906,44746,43754,44298,43882,42586,43306,42522,41450,42202,41546,40953,41738,41578,41018,41930,41114,41050,41930,41306,41034,42042,41514,41418,42330,41914,41962,42474,42026,42426,42730,42218,42282,43162,42346,42858,43226,42858,43690,44522,44314,45339,45771,45307,46331,47179,45995,47195,47467,46619,47691,47707,46907,47531,48043,47211,48363,48443,48155,49564,50060,49756,51724,52332,52908,54845,56029,56349,57934,58414,58542,59694,59358,58558,59166,58398,57101,57341,56381,55053,55053,53997,52812,52908,52028,50652,50684,49980,49019,49740,48619,49228,49324,48331,48923,48843,48123,49244,49099,48539,49260,48731,47835,48795,48683,47851,48875,49292,48331,49180,49228,48571,49532,49228,48827,49804,49692,48955,49820,49468,49035,49708,49324,48955,49644,49083,48651,49115,48011,47371,48283,47643,47131,47851,46907,46699,47339,46523,46539,46827,45835,45787,46475,45643,45579,46267,45259,45531,46075,45515,45931,46379,45819,46811,46987,46411,46891,47515,46891,47835,48139,47019,48411,48667,47419,48331,48299,47675,48443,48667,47771,48571,48699,48043,48923,49500,49164,50668,51212,51564,53373,54413,54925,57165,58446,58798,60702,61967,62015,63183,63311,63055,62879,63199,62879,62975,63167,61855,61999,60894,59294,59198,57934,56093,56013,54541,53261,53132,52076,51340,51820,50956,50620,51484,51020,50732,51900,51484,51084,52316,51132,51212,51772,51212,50972,51692,50716,50684,51052,50236,50236,50892,49884,50188,50988,49820,50588,51340,50620,51148,51596,50636,51228,51436,50620,51068,51308,50316,51052,50652,49916,50620,50252,49115,49692,49468,48571,49131,49035,48171,48811,48555,48539,49099,48219,48731,49420,48795,49548,50140,49452,50460,50988,50268,50972,51500,50508,51308,51132,49948,50700,50588,49580,50172,50220,49372,50364,50076,48923,50044,49996,49051,50140,50204,49196,50412,50668,49980,51660,52220,52172,53917,54717,55325,57341,58302,58910,60990,61775,62383,62879,63279,63151,62831,63071,63183,63167,62911,61967,62095,60910,59134,58910,57149,55469,55149,53533,52236,51916,50844,49964,50668,50044,49964,50892,50396,50956,51932,51692,52364,53148,52396,52876,53389,52684,52540,52764,51612,51660,52012,50572,50812,51164,50012,50252,50732,49324,50156,50588,49548,50540,50700,49804,50652,51164,50252,51164,51372,50748,51564,51564,50380,51516,51228,50236,50412,50316,49083,49404,49228,47835,48667,48251,47435,48107,48219,47499,48747,48619,48347,49724,49692,49308,50300,50284,49788,51052,50748,49916,50796,50524,49644,50892,50140,49484,50156,49644,49051,50012,49468,48971,50012,49164,48875,49596,49099,49131,49996,49180,49308,49900,49468,49436,50604,50316,50956,52668,53132,54557,56237,56941,58510,61519,62031,63151,63183,62927,63087,62863,63135,62927,62959,63343,63183,63215,62095,61759,60206,58846,58174,56077,54717,53997,52076,50716,50364,48667,48491,49244,48155,48731,49884,49228,50188,51004,50732,51980,52380,51980,52828,53421,52508,52940,53180,52268,52716,52460,51244,51500,51500,50028,50508,50508,49564,50284,50588,49596,50540,50876,49836,50956,50972,50268,51164,51276,50732,51260,50988,49820,50796,50412,49324,50236,49420,48443,49164,48795,47931,48827,48539,47883,48923,48283,47883,48827,48651,48187,49484,49196,48747,50236,50108,49516,50332,49964,49692,50668,50412,50108,50844,50124,49820,50524,49884,49676,50444,49820,49548,50028,49676,49212,49644,48747,48955,49372,48491,48891,49340,48779,49308,49804,49228,50188,51212,50988,52332,53709,53741,55709,57454,58046,59982,61775,62607,63343,63055,63007,63279,62927,62975,62879,63183,62879,63023,62959,62911,62735,63167,60494,60366,58446,56045,55341,53533,51292,50876,49900,48155,48539,47963,47307,48267,48171,47915,49340,49852,49372,50892,51340,50764,52300,52316,51628,50204,48811,46667,47083,47243,46011,47403,48251,48027,49932,50588,51084,52764,53805,53004,54845,54877,53949,54797,54541,52924,53164,52364,50268,50188,48587,46763,47035,45979,44858,45483,45291,44538,46043,46219,46107,47675,48395,48347,50060,50460,50764,51916,51660,51468,52652,51996,51756,52428,51308,50396,51132,49884,49356,49804,48843,48811,48971,48411,48139,48459,48011,48219,48827,48283,48555,49388,48555,49196,49964,49196,49900,50684,50092,50940,51612,51276,52492,53437,53725,55437,56973,57181,59278,60750,61198,62831,63439,63071,63007,63391,63135,63071,63247,62831,63055,63263,63055,62815,62767,61743,61967,60142,57774,57117,55581,53277,52332,50876,48699,48731,47595,46331,46987,46747,46283,47707,47883,47723,49564,49724,50012,51692,51772,51996,53164,52988,52780,53853,53389,52652,53421,52636,51964,52540,51468,51132,51244,50316,49836,50220,49468,49548,49852,49244,49628,49948,49115,49356,50060,49051,49596,50124,49340,49452,50188,49019,49596,50220,49340,49868,50476,49420,49836,50380,49468,49932,50412,49292,50924,49900,49692,50092,49131,49115,49660,49067,49099,49740,49196,49500,50348,49676,50028,51116,50540,50940,51548,50380,51292,51740,50908,51548,51644,50748,51388,51436,50092,50700,50860,49372,49740,49948,48619,49948,50396,50060,51676,53261,53773,56349,57726,58670,61647,63327,62943,62911,62911,63087,63311,63375,63359,62863,63055,63055,63119,62831,63119,62799,62815,61711,60958,58990,56461,55437,52940,50604,49868,48091,46411,46587,45899,45243,46491,46379,46651,48363,48683,49308,50988,51212,51932,53244,53437,53821,54733,54429,54381,55181,54189,54109,54493,53405,52924,53100,51980,52236,52188,51260,51324,51516,50636,50860,51164,50188,50892,50892,50076,50908,51180,50204,51084,51388,50364,51052,51532,50396,51084,50908,50140,51100,51100,50332,51468,51468,50572,51676,51692,50588,51548,51772,50652,51324,51468,50620,51468,51228,50284,51084,50924,50076,51212,51020,50572,51548,51548,50924,51644,51372,50588,51692,51420,50956,51644,51628,50732,51756,51388,50796,51788,51660,51548,52828,53068,53645,55741,56333,57325,59934,61471,62991,63151,63007,63391,62943,63279,63007,62911,63183,62911,63279,63167,62911,62959,62863,63119,63167,62911,63247,63007,62895,63087,62895,63119,61999,60126,57566,56301,53261,51052,49980,47467,45531,45547,43706,43322,44010,43770,44250,45515,45563,47531,49212,50188,52460,54797,55101,56877,58382,58206,59358,60046,59038,58974,58542,56973,56445,55821,53293,52588,51612,49292,48779,47819,45995,46123,45979,44506,45371,45739,45419,47019,47883,47723,49948,51148,50892,52796,53549,53132,54365,54413,53469,54509,53869,52364,52956,51964,50636,50700,49852,48267,48891,48539,47419,48155,48171,47499,48651,48747,48555,50012,50220,50012,51580,51468,51388,52556,52364,52060,53164,52844,53068,54525,54957,56093,57646,58734,59982,62431,63135,63055,63391,62991,62943,62831,63167,63119,62975,63023,63279,63087,62959,63119,63167,62959,63375,62863,59934,58462,57245,54205,52940,51292,48651,47883,46571,44826,44762,44522,43754,44698,45034,44938,46811,47819,48043,49820,51020,51100,53180,54045,53709,55229,55645,55053,56093,56077,54973,55613,54877,54365,53597,51740,51612,51004,49404,49548,49035,47563,48475,48299,47595,48235,48603,47803,48779,49324,48219,49420,49804,49035,50396,50332,49596,50716,50588,49564,50348,50396,49340,50444,50108,48907,50092,49852,48955,50028,49964,48923,50220,49756,49196,50140,49676,49099,50028,49340,48987,49820,49708,49035,50300,49964,49484,50572,50300,50028,50908,50316,50492,51900,51644,52396,53837,54189,55341,57406,58206,60062,61983,62927,62991,62927,62847,63231,63327,63135,63135,63039,63439,62959,62911,62831,62927,63215,63167,62943,63247,61551,60446,59326,56477,55005,53469,50732,49788,48523,46795,46939,46555,45355,46651,46987,46315,48475,49324,49516,51308,52572,52540,54477,55485,55181,57165,57325,57037,58062,57838,57213,57646,57358,56013,56237,55645,54093,54205,53389,52332,52716,51788,50764,51100,50412,49404,49932,49500,48731,49772,49131,48859,49452,49244,49003,50140,49644,49436,50668,50012,50204,51004,50636,50220,51356,50492,50492,50652,50124,49964,50460,49388,49516,49692,48795,49244,49580,48651,49083,49596,48731,49276,48523,47419,45963,44474,45227,45867,45787,48075,49580,50540,54173,56301,58270,62047,63167,63311,63551,63247,63087,62911,62991,63311,63071,63007,62927,62831,63199,63215,63183,63439,63215,63007,62991,62879,63263,63103,62863,63295,63199,62959,63023,62927,62047,60478,57406,55405,53180,49596,47771,46267,43722,42858,42570,41242,42138,43546,43274,45195,46747,47659,50460,52252,53325,55597,57341,57341,58830,59582,58718,59326,58702,57101,56573,55389,52748,52396,50620,48219,48171,47163,45499,45755,45227,44266,45195,45435,44954,46571,47259,47339,48971,49468,49852,51404,51660,51740,52796,52716,51996,52860,52332,51628,52188,51132,50204,50620,49356,48715,49228,48203,47595,48251,47547,47067,48011,47915,48171,49035,48955,49324,50460,50076,50636,51772,51436,51596,52668,52204,53357,54925,54829,56365,57870,58782,61070,63135,63007,62927,62863,62847,62959,62879,63215,62815,63039,63375,62831,63039,63007,63215,62927,63327,62863,63007,63199,63087,62991,62991,62879,63343,62927,62879,63119,63135,63391,63423,63151,62879,62767,62895,63167,51628,45451,43898,43850,35128,10210,256,320,240,208,304,34408,63247,63919,63519,63535,63311,63631,63311,63583,63647,63503,63455,63199,63423,63759,63503,63855,63935,63983,63711,63455,63679,63391,63391,64015,63583,63791,63583,63823,63551,63263,63423,63215,63759,63455,63455,63823,63519,63887,63919,63311,63727,63759,63391,63919,63247,63855,63279,63615,63919,63567,63839,63887,63391,63295,63807,63679,63423,63471,63503,63295,63743,63631,63903,63935,63423,63327,63711,63519,63631,63391,63935,63583,63567,63247,63407,63871,63855,63583,63631,63519,63535,63343,63455,63631,63839,63439,63631,63391,63295,63295,63471,63695,63423,63503,63695,63727,63439,63375,63839,63503,63887,63791,63759,63503,63695,63983,63423,63343,63503,63551,63775,63823,63679,63407,63455,63311,63759,63519,63951,64079,63343,63903,63391,63695,63695,63919,63407,63663,63775,63823,63375,63327,63375,63951,63407,63647,64047,63423,63663,63391,63503,63791,63343,63919,63551,63695,63343,63807,63759,63327,63855,63887,63887,63439,63727,63887,63263,63535,64031,63583,63631,63759,63631,63647,63327,63375,63679,63935,63391,63807,63551,63375,63439,63439,63471,63407,63679,63951,63423,63967,63471,63919,63327,63839,63263,63439,63903,63455,63647,63615,63423,63391,63439,63919,63647,63999,63535,63679,63631,63887,63391,63887,63423,63295,63855,63471,63375,63503,63391,63551,63951,63439,63311,63455,63823,63455,63471,63423,63679,63375,63423,63999,63775,63903,63311,63471,63519,63375,63791,63407,63567,63503,63423,63567,63967,63503,63663,63615,63775,63439,63327,63807,63295,63519,63471,63551,63679,63391,63311,63647,63711,63759,63407,63375,63759,63359,64015,63695,63535,63407,63391,63887,63599,64031,63919,63887,63423,63343,63695,63983,63359,63951,63343,63455,63567,63935,63775,63439,63423,63567,63823,63471,63279,63439,63679,63551,63503,63887,63311,63711,63887,63711,63343,63599,63439,63759,63407,63423,63391,63359,64079,63343,63983,63343,63439,64031,63855,63567,63455,63647,63663,63391,63231,63967,63519,63695,63519,63775,64031,63455,63935,63519,63919,63519,63423,63551,63295,63679,63919,63759,63631,63903,63551,63967,63791,63551,63439,63727,63455,63311,63791,63935,63679,63263,63567,63423,63311,63791,63839,63759,63999,63695,63455,63439,63423,63311,63247,63967,63663,63823,63663,63631,63823,63471,63519,63535,63471,63455,63695,63455,63775,63471,63343,63375,63295,63791,63503,63327,63967,63535,63919,63295,63679,63903,63375,63647,63279,63375,63327,63423,64015,63631,63279,63775,63951,63343,63759,63503,63887,63631,63695,63375,63423,63695,63631,63311,63807,63327,63439,63903,63327,63391,63839,63567,63983,63551,63711,63935,63263,63679,63327,63887,63967,63439,63471,63391,63791,63423,63807,63327,63391,63519,63887,63295,63455,63551,63647,63647,63375,63503,63503,63423,63823,63935,63759,63471,64063,63503,63823,63327,63263,63759,63935,63679,63775,63263,63823,63423,63279,63695,63679,63823,63471,63583,63375,63455,63311,63423,63887,63311,63711,63759,63631,63663,63567,63583,63327,63535,63759,63439,63503,63327,64095,63439,63279,63327,63519,63375,63327,63407,63935,63839,63231,63807,63503,63423,63647,63839,63327,63663,63807,63727,63935,63343,63359,63663,63247,63583,63311,63727,63775,63279,63567,63663,63295,63407,63439,63695,63567,63839,63839,63567,63679,63279,63663,63375,63295,63551,63839,63807,63647,63887,63519,63935,63679,63375,63311,63647,63295,63567,63343,63503,63839,63455,63759,63423,63375,63503,63311,63423,63311,63631,63823,63631,63423,63775,63535,63407,63839,63647,63263,63407,63663,63791,63503,63327,63695,63263,63935,63391,63583,63343,63503,63759,63471,63295,63567,63455,63631,63503,63695,63567,63343,63775,63231,63839,63839,63295,63407,63647,63535,63647,63519,63823,63343,63407,63599,63695,63311,63583,63343,63631,63631,63823,63343,63455,63551,63567,63551,63423,63935,63663,63375,63247,63279,63295,63375,63711,63647,63631,63679,63919,63391,63775,63663,63327,63759,63823,63519,63583,63423,63871,63391,63247,63519,63951,63327,63247,63791,63343,63279,63647,63503,63919,63583,63807,63343,63631,63199,63247,63807,63599,63551,63359,63839,63583,63311,63535,63903,63791,63711,63471,63567,63839,63695,63727,63583,63759,63535,63279,64031,63455,63839,63567,63711,63391,63775,63503,63183,63135,63535,63503,63311,30855,192,80,320,192,240,272,288,192,192,96,256,320,128,176,272,288,336,144,208,192,272,224,176,272,128,80,288,176,352,192,160,224,144,256,272,128,224,192,176,144,176,208,272,384,128,224,240,208,192,176,112,208,208,304,208,256,336,240,160,144,304,31943,62159,63519,63711,63391,63247,63407,63583,63455,63407,63279,63183,63279,63807,63247,63311,63711,63279,63679,63215,63503,63535,63455,63375,63135,63455,63215,63423,63631,63439,63375,63599,63583,63327,63519,63279,63807,63599,63375,63375,63663,63567,63231,63727,63167,55789,46587,35944,23573,10274,224,208,224,400,336,256,272,320,192,192,272,192,272,336,320,256,192,144,208,304,400,320,192,224,144,160,192,288,224,208,224,160,176,176,224,128,304,416,304,160,256,224,256,240,192,288,288,208,256,208,128,288,176,288,224,304,288,192,240,288,272,224,272,144,224,192,384,352,192,224,112,304,224,272,272,176,320,208,320,272,288,160,320,208,224,224,144,176,224,256,208,192,288,176,320,256,208,304,64,304,192,256,208,272,256,336,256,320,256,208,320,208,288,224,304,160,224,80,208,144,272,336,176,208,288,96,144,160,304,336,128,320,192,272,192,256,416,176,128,208,336,336,272,240,208,256,288,304,304,304,256,272,240,192,176,256,224,224,352,256,176,176,288,240,256,144,160,160,240,192,48,176,224,208,144,256,128,304,176,112,224,224,192,192,192,304,208,224,224,144,272,320,256,176,144,176,224,320,224,256,352,288,192,224,96,240,256,208,208,272,176,272,288,256,208,288,384,320,272,352,224,176,256,288,192,304,192,304,176,240,224,272,224,336,288,240,272,192,320,288,192,288,288,304,224,208,32,304,320,336,240,352,112,304,208,144,288,224,4961,13891,22933,31911,39721,46123,51436,55853,57998,60046,60622,60126,59710,58126,56029,53997,51868,49612,47995,46347,44650,43946,43242,42426,43114,43514,44154,46091,46907,48171,50412,51788,52460,53949,54893,54477,55501,55261,55085,55245,54989,54157,54189,53517,52412,52124,50780,50028,49756,48795,48091,47659,46395,45451,45483,45099,44826,45403,45307,46363,47339,47979,48859,50428,51084,51772,53004,53421,54221,54557,54413,54717,54445,53869,54045,53565,52780,53052,52188,51724,51484,50412,49980,49820,49228,48747,48731,48315,47899,48155,48075,47979,48475,48283,48459,49083,49035,49260,49788,49628,50076,50444,49804,50492,50348,50140,50236,50124,49564,49628,49147,48603,48651,48283,47499,47771,47403,46955,46763,46507,46043,46315,46267,45995,46411,46619,46331,46843,46731,46491,47147,47131,46699,47035,46907,46507,46923,46939,46475,46875,46571,46251,46171,46363,45787,46171,46091,45563,45915,45867,45515,45595,45483,45211,45707,45659,45147,45771,45547,45867,46411,46779,47291,48283,48859,49580,50668,51228,52044,53180,53821,54605,55981,56045,56877,57341,57390,57646,57950,57341,57245,57325,56525,56285,56205,55181,54685,54589,53597,53453,53485,52844,52428,52636,51788,51676,51756,51004,51260,51212,50268,50540,50364,49900,49932,50028,49596,49644,49980,49244,49932,49724,49372,49612,49596,49436,49740,49628,49516,49900,50060,49996,50380,49996,49580,49820,49772,49067,49484,49244,48987,49180,48971,48443,48619,48539,48027,46411,45227,44394,43690,43658,43722,43962,45115,45787,46187,47387,48107,48459,49164,49516,49500,50188,50108,49692,49948,49372,48667,48587,48603,47211,47531,47675,46683,46907,46987,46603,46827,46699,46347,47163,47403,47499,48219,49051,49244,50620,51596,52764,54429,55757,56637,58254,59678,60446,61887,63375,63279,62943,63215,63295,62927,62815,63391,63039,62351,62047,60510,59550,59070,57518,57229,56237,55245,55149,54669,53773,53533,53309,52668,52828,52940,51884,52316,52124,51276,51356,51004,50700,50796,50764,50140,50380,50060,49692,50220,50108,49756,50428,50652,50156,50796,50844,50668,51180,51180,50844,51212,51004,50668,50972,50764,50332,50476,49900,49212,49836,49115,48603,48795,48635,47819,47803,47899,47243,47451,47243,46955,47291,47131,46699,46907,46955,46507,47035,46875,46763,47003,46699,46811,47419,46795,46811,47083,46811,46939,46939,46619,46667,46987,46603,46859,47291,46747,46859,47179,46539,46731,46875,46587,46827,46875,45995,46219,46315,45979,46411,46683,46219,47131,47451,47563,48555,49548,50908,52748,53389,54813,56477,57341,58478,60382,60958,62607,63023,63055,63215,63311,63247,63151,63471,63023,63535,62991,61358,60638,59710,57886,56925,56141,54557,53789,52956,52188,51948,51756,50732,50860,50732,50092,50204,50476,49996,50268,50124,49596,49548,49548,49035,49388,49244,48907,49003,49180,48875,49484,49115,48955,49516,49676,49292,49772,49676,49740,49820,49756,49484,49932,49980,49324,49836,49404,49324,49724,48923,48731,48955,48299,47915,47979,47627,47307,47307,46907,46555,47083,46635,46571,46859,46475,46235,46603,46283,46555,46603,46555,46651,46747,46619,46795,47035,46667,46523,46875,46763,46699,46891,46363,46747,46731,46523,46651,47051,46491,46779,46587,46235,46747,46379,46523,46731,46667,46587,46891,46699,46315,46795,46507,46171,46539,46507,46027,46283,46427,46139,46651,46683,46587,47211,47579,47627,49099,49676,50860,52396,53565,54557,56029,57454,58350,60110,61262,61775,63007,63183,63455,63055,63039,63263,62847,62895,62047,61823,60334,59454,58478,57518,56093,55101,53661,52460,52444,51004,50668,50588,49980,50252,49932,49436,49660,49340,48987,49388,49067,48923,49212,49003,48715,49196,48811,48683,49180,48955,48779,49244,48827,48939,49596,49292,49324,49932,49964,49868,50380,49884,49868,49948,49356,49292,49212,48571,48731,48539,48091,47803,47755,47003,47451,47147,46811,47051,46891,46411,46843,47147,46539,46811,47131,46747,46987,47115,46875,47131,47211,46763,47307,47211,46843,47291,47419,46891,47147,47467,46699,47147,47131,47211,47627,47339,47115,47723,47355,47067,47659,47675,47179,47499,46875,46939,47435,47179,46603,47291,47467,46955,47051,46907,46619,47371,47371,47211,47771,47963,48379,49452,50140,51212,52508,53709,54685,56333,57133,58126,59902,60494,61102,62031,62351,62447,62991,62399,61967,62079,61198,60430,59870,58638,57918,57406,55997,54989,54461,53357,52924,52364,51740,51724,51340,50876,50524,50860,50188,50412,50412,50108,49884,49868,49308,49868,49916,49083,49580,49740,49436,49724,49772,49500,49980,50316,49980,50380,50508,50204,50652,51116,50796,51180,50908,50396,51100,50828,50028,50268,50316,49596,49868,49196,49003,48715,48363,48107,48187,47755,47915,47707,47531,47851,47851,47307,47899,47771,47403,48139,48059,47627,48059,47707,47451,47787,47803,47611,48027,47979,47531,48203,48027,47243,47707,47963,47387,47787,47579,47179,47643,47419,47451,47515,47467,47211,47643,47387,47531,47723,48011,47851,48395,48187,48171,48971,49356,49852,51084,51692,52828,54493,55149,56765,58174,58942,60302,61198,61903,62543,63087,62991,62735,62783,61983,61551,60942,59742,58782,57886,56637,55965,55021,53725,53661,52748,51836,51820,51340,50572,50540,50380,50060,50284,50060,49500,49724,49884,49260,49900,49948,49292,50204,49916,49532,50092,50060,50028,50204,50732,50124,50796,51020,50588,51164,51132,50844,51420,51356,50748,51100,50940,50700,50972,51036,50460,50540,50268,49852,50348,49868,49452,49692,49340,48987,49756,49196,48939,49083,48827,48443,48987,48859,48603,48875,49003,48811,49035,48779,48555,49035,48539,48603,48891,48651,48459,48779,48331,48731,48859,48283,48539,48619,47883,48251,48523,48219,48299,48603,48395,48603,49131,49067,55053,55005,55149,56333,57406,58750,61038,62495,63039,63263,62959,63023,63583,63135,63407,62863,63279,63311,63423,63119,62975,63007,63023,62959,62927,62911,62223,61182,59294,57518,56557,55101,54077,53261,52236,51900,52204,52172,53180,55133,56797,58350,60894,63199,62879,63087,63071,63119,63327,63503,63535,63135,63343,63119,63007,63407,63487,63471,63759,63679,63631,63807,63391,63679,63711,63279,63599,63631,63359,64047,63727,63423,63647,63311,63503,63951,63503,63423,63887,63375,63759,63919,63903,63375,63903,63983,63343,63407,63503,63983,63647,63679,63759,63551,63983,63279,63583,63711,63327,63711,63423,63407,63871,63343,63647,63631,63391,63423,63647,63663,63407,63935,63327,63583,63935,63951,63647,63919,63295,63327,63567,63935,63567,63567,63983,63423,63295,63775,63407,63439,63839,63343,63391,63855,63679,63679,63583,63951,63343,63279,63407,63647,63935,63423,63407,63647,63711,63935,63855,63567,63311,63631,63791,63823,63855,63855,63455,63647,63631,63663,63791,63599,63935,63439,63855,63903,63791,63903,63807,63391,63423,63423,63375,63903,63599,63407,64015,63407,63903,63503,63711,63903,64031,63503,63567,63327,63903,63727,63887,63695,63439,63407,63983,63423,63647,63343,63583,63759,63903,63503,63599,63887,63519,63247,63535,63455,63551,63327,63471,63455,63359,63903,63519,63903,63343,63887,63375,63439,63391,63295,63391,63343,63967,63391,63887,63583,63679,63631,63503,63375,63503,63423,63631,63199,63519,63583,63327,63551,63471,63695,63839,63647,63679,63439,63535,63631,63583,63695,63311,63887,63279,63279,63855,63407,63423,63935,63647,63759,63407,64047,63231,63759,63407,63663,63423,63519,63679,63311,63631,63711,63615,63951,63791,63727,63839,63247,63567,63295,63775,63439,63327,63551,63199,63727,63439,63343,63391,63391,63711,63407,63711,63423,63567,63823,63391,63551,63663,63407,63423,63583,63679,63919,63519,63887,63711,63679,63567,63391,63311,63759,63583,63775,63679,63567,63855,63535,63663,63791,63551,63983,63375,64143,63327,63535,63727,63951,63535,63663,63631,63631,63759,63455,63727,63583,63727,63663,63679,63295,63455,63583,63327,63535,63903,63983,63983,63679,63471,63679,63919,63887,63407,63695,63455,63391,63823,63727,63903,63455,63391,63423,64079,63375,63919,63695,63919,63295,63279,63631,63775,63839,63407,63967,63343,63311,63407,63839,63279,63391,63471,63647,63903,63695,63839,63439,63743,63631,63567,63375,63295,63359,63855,63631,63375,63663,63439,63727,63407,63567,63375,63407,63263,63903,63887,63647,63727,63599,63839,63759,63823,63983,63679,63919,63583,63663,63839,63583,63791,63279,63263,63567,63711,63919,63375,63391,63663,64031,63327,63823,63215,63279,63551,63679,63919,63599,63983,63375,63407,63663,63407,63295,63199,63727,63343,63551,63679,63439,64047,63247,63471,63775,63711,63295,63423,63391,63519,63343,63503,63631,63343,63887,63583,63551,63807,64015,63455,63423,63407,63567,63839,63839,63839,63567,63279,63583,63711,63391,63407,63823,63503,63343,63471,63295,63439,63599,63855,63247,63455,63775,63279,63583,63775,63583,63439,63807,63775,63391,63679,63679,63695,63439,63375,63343,63631,63711,63327,63663,63839,63215,63279,63679,63567,63327,63343,63935,63551,63791,63263,63391,63983,63647,63375,63903,63935,63583,63423,63295,63311,63599,63711,63455,63279,63519,63903,63903,64063,63615,63503,63679,63599,63455,63359,63423,63327,63503,63455,63663,63263,63391,63903,63631,63199,63327,63631,63903,63935,63935,63599,63711,63519,63295,63343,63263,63775,63295,63823,63263,63375,63359,63375,63807,63567,63775,63631,63567,63599,63407,63503,63775,63727,63391,63807,63359,63519,63263,63423,63535,63551,63791,63503,63423,63599,63519,63439,63263,63567,63695,63519,63391,63279,63327,63519,63263,64015,63311,63567,63295,63647,63535,63503,63247,63279,63807,63663,63599,63423,63695,63823,63391,63855,63567,63295,63407,63359,63791,63855,63263,63375,63647,63583,63615,63631,63263,63295,63519,63695,63519,63199,63311,63295,63679,63439,63743,63183,63663,63327,63647,63743,61631,57117,52188,46811,41498,36376,31447,26758,22821,19492,16692,14803,13619,13507,13523,15075,16388,17428,18820,19556,20324,21701,22357,23365,24101,24886,25702,26454,27814,28086,29079,29463,30167,30727,30487,25206,22949,20693,18516,15843,13763,10850,6097,240,176,256,272,256,288,304,272,192,192,240,224,336,176,224,128,288,320,128,224,192,224,256,272,208,128,176,208,176,192,224,144,272,256,256,160,176,224,304,240,384,224,160,272,288,320,304,288,336,176,272,128,192,304,176,224,288,256,256,288,224,304,416,320,304,144,192,144,192,272,256,224,64,272,256,304,176,160,144,64,208,144,256,240,192,288,320,160,224,304,176,128,224,160,176,176,208,208,320,256,384,144,160,160,256,416,192,48,128,160,256,208,288,256,208,272,192,432,272,224,128,304,224,112,144,272,256,240,256,144,192,448,304,224,352,304,96,272,176,304,208,208,224,176,336,256,128,192,208,208,160,144,192,224,144,256,192,272,176,320,176,432,192,208,160,192,64,192,176,80,272,304,144,192,176,256,192,272,320,240,224,192,96,256,224,144,240,144,176,304,176,288,224,368,208,208,160,272,208,272,224,192,144,192,160,208,320,304,288,304,192,144,272,256,192,144,304,144,320,272,160,208,272,288,208,160,208,256,272,208,224,288,208,224,160,144,208,160,224,208,256,256,304,176,224,160,160,208,80,256,176,9090,19492,30919,41370,50732,59806,63551,63119,63055,62959,63455,62863,63327,63135,63503,63039,63023,62943,63423,63279,62943,63055,61070,58958,56301,52684,50908,48523,46267,45707,44650,44138,45467,46155,46795,48779,49980,50796,52636,53517,54205,55517,55645,55245,55389,53997,52652,51532,49708,47547,46123,43450,41146,39561,37449,35032,33336,31303,29991,29287,28630,28967,30263,31431,33384,36152,38121,40505,42794,43562,45083,45339,44394,43450,42170,39353,36792,33848,29111,25302,21301,16131,12499,8882,4705,2480,256,272,256,224,208,128,320,208,224,192,1120,3312,5345,6433,8706,10450,11362,13507,15027,15251,17124,18196,18356,19636,20452,20452,21685,22053,21557,22341,23093,22629,23621,23685,23285,24117,24453,24598,25494,26086,26886,28342,29159,29783,31591,32423,33720,35288,35720,36504,37769,37993,37705,38073,37305,36744,36456,35736,34472,33672,32199,31239,30503,28775,27606,26694,24998,24261,23589,22469,21989,21813,20821,21045,21493,21253,22165,23221,23525,24774,26118,26374,28342,29399,29703,32311,32743,33064,34280,34344,34280,35320,35016,35240,36296,35848,36536,37577,37865,38985,40425,40857,42250,44042,44586,45723,46699,46699,47627,47787,46731,46859,46347,45099,44458,43914,42154,41802,40953,39401,38937,38425,37145,37385,37577,36856,38073,38489,38681,39961,40921,41322,42314,42682,42346,43018,43114,42330,42346,42250,41210,41514,40953,40505,40473,40521,39897,40409,40521,40041,41002,41130,41082,41658,42122,41530,42298,41946,41658,42314,41882,41450,41706,40953,40393,40489,39849,39401,39609,39033,38297,38793,38025,37721,38105,37929,37817,38601,38233,38233,39113,38665,39065,39769,39465,39801,40505,40009,40409,40777,40025,40393,40889,39449,39753,40009,39193,39337,39289,38041,38873,39065,38041,38521,38825,38681,39193,39769,39385,40217,40473,39641,40009,40665,39865,40841,40729,40249,40793,40761,40169,40970,41402,41034,42282,42762,43418,44954,46299,46987,49436,50748,51916,54029,55469,56445,58142,58926,59406,60062,60366,59566,59550,58734,57133,56765,55261,53613,52764,51164,49452,48939,47291,46363,46267,45355,45275,45259,44682,45179,45067,44762,45595,45467,44794,45643,45259,44570,44650,44090,43194,43242,42778,41674,42282,41482,40953,41818,41274,41306,42170,41962,41882,42426,42458,42458,43066,42826,43018,43690,43034,42922,43418,42570,42554,42810,41946,41706,41722,40665,40441,40953,40137,40249,40889,40153,40505,40953,40153,40857,41114,40873,41178,41642,40793,41402,42090,40986,41578,41658,41002,41434,41450,40953,41210,41162,40585,41146,41066,40841,41114,41482,40937,41786,41770,41210,42282,42762,41994,42890,42810,42298,42938,42778,42074,42890,42458,41962,42058,41962,41002,41722,41370,40665,41130,40857,40649,40953,41002,40729,41754,42058,41882,43562,43994,45131,46763,48075,49212,51548,52892,54525,56573,57790,59070,60750,61214,62031,62879,62447,62447,62591,61102,60510,59486,57806,56893,55693,53405,52172,50940,49244,48491,48203,47019,46987,47275,46619,47083,47371,46779,47563,47787,46731,47595,47339,46523,46667,46219,45227,45387,45018,43738,44154,43786,42954,43514,43162,42874,43466,43610,43242,44378,44218,43706,44890,44938,43594,42250,40217,39849,39753,38697,39305,40137,39625,40873,41306,41370,42330,43066,42794,43498,43930,43418,43786,44138,42938,43274,43322,42058,42410,42170,41258,41802,41722,40905,41178,41034,40537,41194,41018,40729,41482,41434,40953,41930,42074,41770,42474,42570,42058,42826,43082,42298,42778,42762,42042,42570,42154,41754,42474,41674,41162,41930,41530,41002,41242,40953,40681,41050,40729,40569,40953,40633,40633,41274,40905,40921,41770,41466,42106,43066,43162,44234,45739,46395,48347,50396,51436,53821,55645,57037,58926,60414,61342,62639,63007,62911,63327,62895,62863,62863,61919,60046,59230,58318,56301,55053,53725,51692,51420,50348,48587,48331,48075,46763,47435,47499,46571,47435,47179,46923,47659,47579,46859,47371,46859,46251,46491,46059,45339,45275,45243,44058,44650,44698,43946,44762,44266,44042,44970,44746,44570,45723,45675,45515,46651,46875,46603,47499,47195,47195,47771,47211,46651,46779,46395,45787,45899,45227,44890,45099,44138,43802,44378,43562,43338,43706,43450,43530,43658,43642,43354,44042,43418,43962,44362,43738,44250,43994,43082,43674,43210,42842,43482,43418,43546,43946,43242,43178,43338,42538,42122,42314,41274,41146,41706,41290,41498,42186,42266,42762,43258,42890,43402,43370,42442,42042,41642,40201,39385,38569,37017,36184,35624,34072,34152,34168,33720,34920,36584,37033,39849,42170,44170,48027,51212,53741,57566,60654,62575,63039,63071,63407,63151,62863,63087,63135,63071,63119,63327,63391,63119,62927,62991,63119,63423,62895,63071,63503,63087,63007,63023,63503,63023,63023,63343,63151,63391,57406,50188,43770,36360,29351,24598,20388,18532,19332,21269,24565,30023,35928,42314,50028,57245,63535,63423,63231,62991,62863,63407,62895,62991,63375,63039,63151,63135,63071,63023,62991,63535,63039,63039,63007,63391,63279,63087,63039,63023,63167,63375,63279,63167,63119,62991,63007,63311,63423,63087,63407,63471,63039,63423,63343,63119,62991,62911,63039,63439,63167,62959,56557,48059,40953,33816,26214,21717,17636,14867,15411,17524,21045,27590,36024,45467,59086,63135,63311,63039,63087,63071,63167,63455,62991,63007,63583,62943,63247,63519,63599,63055,63087,62927,63183,63119,63039,63295,63519,62927,63247,62943,63263,63375,63375,62911,63023,54461,43194,30951,18692,8802,432,208,288,400,368,80,240,352,1552,6465,11778,18260,24565,29863,36072,40873,44362,48459,50092,50860,51820,51100,50060,49564,47723,45835,44362,42186,40841,40233,38521,37561,37225,36216,36104,36440,35800,35496,34664,33048,31751,30119,27414,25526,23909,21909,21013,20821,20100,21013,22741,23653,26502,29703,31959,35464,38505,40713,43594,45755,46571,48491,49164,48619,48907,48443,46907,46299,45163,43546,43322,42186,40953,41162,40937,40457,41034,41754,41370,42650,43226,43402,44442,44970,45131,45963,46187,45531,46299,45963,44826,45227,44218,43258,43530,43114,42426,43386,43898,44010,45595,46315,47019,48683,49356,49660,50764,50860,50428,51004,50636,50140,50412,49340,48571,48571,48027,47707,47627,46699,46411,46379,45259,44970,44650,43466,43290,43194,41802,41738,41290,40169,40425,40137,38953,39561,39353,38329,38617,38569,37977,38281,38857,38153,38681,39193,38793,39577,40041,40905,41930,41802,42346,43546,43242,44186,45403,45211,46155,46555,46507,47003,47259,46395,46827,46699,45467,45579,45675,44746,45243,45499,44826,45611,46139,46091,47467,48299,48699,50460,52156,53437,56493,58702,60126,62575,62991,63695,63087,63055,60974,59054,56653,54029,51884,49340,46619,45339,43322,41178,40905,40585,40585,43482,46107,49612,54285,58590,62431,63039,63167,63343,63375,63023,62959,63375,62911,63183,63503,63183,63455,63359,62991,63071,63503,63279,63055,62895,62991,63071,63535,63519,62975,62943,63391,63311,63119,63071,63391,63039,62943,63199,63071,63407,63167,63119,63343,61647,57646,52428,47867,43754,38921,35640,32727,29863,28871,28214,27926,29287,30887,32439,35400,37945,39737,42634,44650,45755,47835,48619,48635,49276,49260,48475,48395,47515,45643,45355,44058,42026,41898,40745,39769,39657,38793,37913,38297,37961,37433,37961,37849,37225,38185,37865,37401,38297,38025,37337,38009,37705,37273,38041,37913,37689,38825,38937,38921,39321,39401,39225,39977,39593,39497,39849,39161,39049,39001,38745,38681,39353,43594,43786,44170,44586,45499,46987,48011,50236,51532,52236,54109,55309,55005,55901,56093,55021,54893,54029,52780,52172,50892,48955,48587,47291,46171,45707,45131,43610,44234,43674,43146,43674,43482,43034,43914,43834,43498,44090,44234,43658,44218,43994,43850,44266,44506,43946,44426,44170,44170,44570,44602,44554,45163,44874,44954,45739,45211,45483,46027,45355,45755,46251,45531,45451,45803,45211,45339,45099,44522,44378,44314,43594,43562,43530,43018,42954,43098,42554,42970,43434,42906,43274,43402,43034,43738,43754,43178,43914,43786,43210,44042,43914,43290,43738,43850,43178,43882,43722,43386,44250,44218,43754,44762,45707,45243,46875,47595,47787,49468,50108,50652,51996,52572,53052,53853,54189,53965,54685,54477,53901,54221,53341,52332,52572,51276,50236,49804,48907,48043,48155,46939,46187,46411,45819,45099,45403,44746,44426,44170,44442,44730,43818,44490,44570,43658,44442,44234,43930,44186,44186,43562,44010,44090,43162,43866,44074,43722,44330,44570,44378,45211,44842,44746,45531,45243,44762,45675,45403,44474,45099,44106,43834,43914,42746,42922,42970,42010,42458,42314,41658,42458,42730,41962,42538,42986,42330,43034,42938,42634,43162,43322,42538,43226,43402,42890,43290,43434,42938,43370,43018,42666,43546,43482,43290,44202,44250,44250,45147,46235,46651,47563,48443,49067,50652,51340,51900,53357,53661,53629,54685,54685,54285,54861,54173,53325,53405,52620,51740,51468,50284,48939,49180,47931,47211,47291,46347,46123,46315,45915,46011,46235,45947,45723,46107,45659,45931,46139,45531,45659,45611,45099,45531,45787,45067,45387,45867,44986,45451,45355,44698,45259,45451,44586,45147,44970,44298,44986,44954,44394,44858,45050,44378,44986,44874,43898,44298,44170,43546,43786,43722,42890,43290,43242,42538,43402,42890,42426,43114,42762,42506,42698,42746,42298,43146,42586,42042,42682,42378,41850,42746,42778,42698,43786,43866,43834,45195,45147,45467,46491,46219,46283,47115,46731,46939,48059,48027,48411,49452,49980,50780,52156,52844,53997,55101,55517,56541,57341,57309,57806,58142,57293,57245,56973,55341,54877,54077,52700,52204,51436,49820,49708,48443,47979,48155,47723,47451,47867,47675,47707,48443,48171,47899,48955,48363,48139,48411,47115,46875,46843,45483,44986,45067,44218,44074,44330,43706,44250,44522,44330,45002,45659,45451,46379,46923,46411,47035,47163,46315,46635,46331,45531,45451,45499,44010,44938,44586,43914,44250,44298,43802,44570,44442,43898,44650,44858,44234,45099,45259,44730,45627,45595,45195,45931,45595,45195,45627,45339,44954,45371,45067,44474,45483,44906,44442,45195,44938,44586,45403,45275,45723,46795,47083,48027,49516,50220,51116,52748,53565,54845,56365,56813,57550,58606,58654,58654,59534,58782,58414,58302,57101,56621,55821,54301,53373,52988,51756,50828,50700,49516,49500,49596,48859,49131,49099,48347,49003,49324,48651,49131,49228,48859,49228,49099,48459,48859,48923,48139,48683,48507,47563,48267,47979,47435,48027,48011,47259,48123,47915,47387,48107,48091,47723,48219,47819,47163,47723,47259,46523,46747,46171,45307,45963,45403,44778,45131,44778,44362,44746,44634,43978,44618,44490,44170,44666,44250,43738,44234,43946,43626,44250,44058,44810,44586,44170,44442,44474,43754,44570,44266,43978,44650,44442,43530,44250,44090,43354,44250,44186,43914,44906,44826,44906,46107,46283,46779,48459,49212,50236,52188,53132,54125,56109,56877,57358,58894,58910,59278,60222,59838,59534,59534,58318,57806,57358,55901,54829,54093,52620,51756,51164,50092,49884,49868,48987,49356,49003,48235,48811,48699,47979,48523,48587,47563,47947,47707,46635,46955,46987,45867,46603,46475,45531,46331,46379,45611,46427,46411,46091,46475,47003,46459,47451,47355,46987,47227,47019,46283,46667,46059,45627,45787,45403,44602,44842,44458,43866,44458,43946,43242,44042,43818,43242,44058,43466,43562,44138,43738,43674,44266,44250,43530,44634,43978,44074,44442,44122,44218,44250,44090,43914,44346,43674,43834,44426,43930,43962,44442,43786,43930,44618,43866,44010,44426,43994,44442,45002,45083,46219,47019,47387,48747,50092,50796,52588,54093,54701,56333,57406,57966,58990,59790,59374,59582,59598,58574,58350,57726,56317,55965,54605,52972,52556,51804,50444,50620,49804,48795,49292,48923,48379,49067,46571,44618,42890,43018,42234,42138,43146,43546,44186,45899,46491,46939,48427,48731,49115,49916,49884,49420,49756,49324,48939,48827,47595,47035,46651,45899,45419,45083,44426,44394,44186,43146,43434,43866,43098,43754,44266,43418,44314,44522,44106,45034,45195,44826,45419,45627,45083,45515,45627,45067,45595,45547,45034,45387,45547,44602,45339,45195,44554,45034,45018,44346,45147,45259,44730,45595,45339,44522,45147,45163,44522,45195,45179,44762,45099,45067,44330,45131,44874,44618,45515,45739,45755,46907,47531,48411,50236,51052,52236,54077,55581,56461,58158,58974,59422,61134,61342,61038,61615,60782,60046,60222,58622,57518,57374,55965,54685,54221,52924,52012,51980,51356,51020,51340,50556,50844,51660,51004,51596,51868,51532,51548,51772,50924,50748,50396,49292,49180,49099,47611,47851,47387,46395,46747,46523,45963,46619,46779,46283,46955,47195,46827,47611,47627,47291,47947,48123,47419,47963,48059,47051,47643,47291,46139,46523,46043,45034,45803,45099,44186,45067,44586,44010,44554,44186,43722,44730,44298,43946,44842,44618,44938,44554,44010,44682,44506,43914,44586,44570,44378,45195,45195,45018,45611,45403,44938,45403,45387,44810,45259,45018,44474,45163,45147,44490,45131,45211,44330,45275,45243,44394,45147,45067,44378,45131,44986,44522,45659,45083,44842,45323,45099,44458,45451,45259,45195,46603,46683,47515,48907,49772,50716,52492,53437,54989,56637,57341,58670,59886,59870,60702,61278,60702,60702,60270,59230,58766,58014,56173,55709,54797,53293,52716,52716,51244,51324,51132,50476,50460,51052,50508,51084,51692,50748,51468,51596,50668,50972,50796,49932,49868,49260,48267,48043,47611,46651,46987,46411,45563,46411,46283,45595,46603,46795,46251,47291,47371,47083,48027,48267,47899,48395,48091,47531,47899,47419,46619,47115,46587,45739,45883,45099,44698,45131,44618,44106,44746,44346,44042,44618,44170,44170,44666,44266,44266,44794,44266,44426,44874,44778,44858,45211,44890,44842,45419,44858,45018,45403,44826,45227,45595,44714,45211,45243,44730,44890,45371,44538,44730,44874,44522,45099,45018,44266,45115,45243,44618,45211,45707,44858,45851,45227,45099,45355,44586,44858,45067,44458,44586,44794,44218,44794,45451,44954,45899,46555,46363,47867,48843,48859,50492,51756,52252,53949,55293,55437,57117,57998,58350,59358,59662,59278,59838,59326,58254,57886,57149,55645,55501,54205,52588,52620,51260,50028,50268,49468,48859,49196,49356,48859,49724,49820,49580,50396,50508,49740,50572,50156,49692,50108,49548,48619,48523,48075,47147,47627,46891,46571,47035,46507,46027,46811,46363,46379,46875,46699,46571,47179,47291,47003,47691,47243,47451,47707,47275,47131,47275,46507,46267,46443,45707,45723,45643,44698,45018,45291,44298,44586,44618,44074,44602,44618,44090,44778,44746,44042,44810,45147,44490,44954,45195,44618,45099,45355,44810,45291,45355,44682,45707,45515,44826,45531,45707,45018,45515,45355,45131,45595,45579,44986,45611,45579,45034,45851,45499,44922,45563,45483,45034,45643,45579,45227,46027,45819,45195,45915,45323,45018,45835,45499,45259,45803,45723,45499,46059,45883,45611,46267,45867,45755,46987,46811,47531,48971,49708,50668,52236,53004,54061,55421,55837,57550,57710,57341,58046,57341,56221,56637,55645,54445,54285,52940,51916,51676,50396,49708,49164,48107,47531,47659,47115,46827,47483,47339,47275,47995,47931,47771,48395,47675,47931,47899,47387,47243,47323,46571,46587,46363,45707,45851,46091,45243,45771,46251,45659,46235,46379,45963,46491,47035,46347,47195,47339,46555,47067,47147,46315,46683,46619,45851,46091,46043,45339,45883,45499,44874,45467,45227,44746,45147,45323,44762,45547,45787,45115,45803,45547,45034,45771,45659,45403,45835,45979,45227,46123,45675,45067,46059,45771,45755,45915,45995,45595,46043,46155,45451,46203,45787,45499,46283,45963,45803,46155,46027,45963,46507,46011,46043,46667,46283,46283,46619,45835,46139,46779,46283,46011,46571,45915,46155,46315,45483,46011,46347,45915,45883,46491,45883,46491,46555,46155,46891,47323,46987,47547,48347,48283,49452,49980,49932,51164,51916,52252,53549,53997,53709,54845,54925,54237,54509,54045,53164,52972,52908,51420,51356,50396,49388,49484,48795,47867,48027,47595,46619,47579,47163,46827,47595,47403,47035,47563,47627,46395,44906,43178,42938,43178,42586,43594,44298,44890,45979,47227,47579,48811,49900,49372,50364,50732,50284,50540,50364,49340,49820,49436,48331,48491,48155,46827,47051,47035,46091,46379,46155,45579,46235,46107,45771,46443,46139,45531,46747,46683,46027,46843,46859,46427,47531,47051,46859,47451,47499,46811,47563,47451,47003,47899,47323,46955,47867,47499,47003,47595,