320,272,304,192,208,304,160,400,160,160,256,144,288,208,6225,12595,17348,19684,19796,16468,9538,336,256,384,208,224,272,208,272,11746,29143,45995,60974,63279,63407,63263,63199,63055,63151,63567,63167,63295,63151,63119,63631,63327,63039,63343,63663,63263,63263,63023,63711,63327,63039,63087,63679,63471,63663,63295,63039,63375,63455,63551,63535,63471,63503,63151,62959,63247,63311,63695,63263,63263,63519,57886,53533,49804,45851,42682,40457,37769,36136,34728,33352,32343,32295,31655,31511,31911,31911,32135,33224,33880,41242,40297,39833,38937,37481,36985,36232,34936,34360,33352,32199,31191,31111,30055,29175,28791,27958,27046,26582,26406,25430,25366,24966,24229,24117,23909,22789,22181,21573,20228,19620,18612,17140,15907,14643,12723,11170,9682,8081,6273,4897,2992,1072,256,192,192,336,208,272,240,384,208,240,208,384,208,160,224,320,320,336,160,208,192,208,96,384,208,144,272,176,128,192,224,288,112,192,160,160,144,208,304,224,224,256,144,224,208,128,80,288,304,256,176,256,208,128,224,192,272,144,240,224,176,160,192,224,192,272,176,256,176,192,240,208,224,304,320,144,176,192,64,224,208,224,272,176,272,240,256,336,256,288,128,208,208,256,176,448,176,224,256,256,272,144,176,272,192,192,128,272,256,304,192,320,224,352,224,224,208,272,240,176,176,176,176,160,160,48,224,272,144,224,96,288,256,192,352,240,176,272,160,304,208,256,256,192,128,288,224,256,176,272,160,256,160,208,256,240,224,336,192,176,208,224,192,96,208,288,208,128,160,144,176,256,176,320,192,176,352,224,192,208,272,192,192,304,192,288,320,288,288,288,160,304,240,288,192,144,304,208,160,144,208,192,352,160,192,336,176,192,80,208,176,256,320,304,144,256,352,304,256,208,224,208,336,256,208,176,80,208,272,224,192,144,96,240,256,304,192,208,288,256,256,192,256,224,144,176,192,160,272,384,256,256,208,256,384,336,416,4529,9570,13411,18356,22917,25318,29111,31879,33816,36280,38121,38665,39257,39769,39513,39689,39769,38889,38569,38169,36824,36408,35912,34360,34008,33544,32215,32087,32135,30871,30807,30663,30375,30263,30391,29911,30007,30183,30039,30599,30935,30647,30919,31143,32439,32439,31495,32487,32727,32103,32920,33112,32776,33352,33720,32936,33336,33640,33304,33848,34056,33192,33880,34200,33576,34056,34152,33464,33496,33832,33176,33368,33768,33304,33544,33464,33176,33432,33640,32984,33592,33608,33208,33608,33512,33304,33512,33384,33176,33560,33016,33096,33592,33224,33560,33672,33320,32952,33528,33112,33352,33720,33192,33480,33672,33352,33624,34072,33944,33992,34088,33880,33624,33880,33480,33800,34152,33496,33656,34264,33432,34120,34264,33640,33864,33672,32776,33608,33768,32663,33688,33864,32936,33896,34216,33096,34200,34264,33720,34328,34712,33752,34536,35208,33688,34536,34888,34088,34584,35480,33848,34776,35160,33720,34728,34840,33976,34728,35416,34264,34856,35224,34360,35064,35496,34392,35368,35496,34472,35800,35544,34456,36008,35560,35208,36232,35624,35000,35880,35512,35384,36152,35480,36056,36376,36392,35992,37097,36824,36568,37097,36969,37081,37449,36760,37273,37097,37033,36696,37577,36808,37545,37849,36969,37497,37801,36969,37273,38201,36792,37177,37865,36120,37177,38105,36889,37561,37065,36921,37401,37017,36937,37225,36648,36744,37289,36905,37017,37449,36873,36824,37513,37177,37289,37993,37049,37145,38169,37033,37177,38089,36584,36760,37145,35928,36760,37721,36312,37545,37769,36184,37081,37897,36520,37545,38153,36200,37369,38329,36152,37705,38617,36632,37465,38217,36232,37577,37833,36312,37353,37929,36408,37257,37961,36536,37561,37721,36568,37417,37513,36632,37417,37385,36584,37513,37449,36744,37705,37641,36488,37865,37401,36824,38137,37769,37353,37897,37513,37513,38681,37705,37337,38409,37689,37625,38217,37561,38025,38265,38057,37913,39001,37817,38025,38473,37785,37785,38489,37801,38089,38601,37769,37449,38601,37609,37705,38969,37353,37913,38521,37513,38281,39145,37513,38489,39385,37897,38697,39705,37417,38953,39657,38025,39209,40009,37513,39113,40073,37801,39241,39833,37545,39209,40025,38185,39513,40025,37785,39625,40009,38361,39497,40169,38793,39785,39945,38841,39881,39913,38761,40201,40153,39001,39945,39881,38793,40121,39385,38873,40121,39481,38841,40009,39705,39145,41834,38457,38969,39129,36937,37609,38425,36840,38441,39065,37417,38697,39225,38425,39881,40073,39081,40313,40425,39721,41130,40601,40057,40953,40585,39993,40953,40473,40201,40777,40169,40409,40761,39769,39657,40281,39785,39689,40345,39993,39657,40265,39497,39657,40201,39385,39593,40329,39353,39609,40633,39209,39641,40809,39609,39481,40793,39129,39657,40633,39177,39641,40233,38969,40025,40761,38569,39625,40649,38761,40249,40937,38377,39705,40905,38553,39689,40697,38185,40073,40953,38697,40537,40409,38729,39737,40489,37961,39881,40217,38585,39449,39769,39001,39433,39577,38793,39481,39625,38889,40073,39961,38697,40105,39625,39065,39849,39641,39321,40041,39705,39321,40521,39849,39881,40633,40745,40617,41066,40585,40585,41386,40633,40953,41146,40745,40889,41498,40986,41386,42282,41114,41562,42074,41498,41754,42474,41402,41642,42634,41418,42026,42058,40953,41226,42010,41066,41434,42570,40713,41274,42170,40441,41130,42314,40489,41018,41962,40473,40986,42570,40233,41498,41434,39865,41386,42154,39625,41130,41818,41162,41706,40425,40953,41354,39881,40457,40953,39481,40281,40953,39609,40697,40953,39529,40265,40905,39433,39993,40569,39529,39881,40377,39449,40041,40777,39129,39785,40489,38841,39705,39833,39097,39881,39833,38841,39737,39721,38873,39481,39513,38809,39465,39513,38857,39593,39737,39097,39449,39721,38873,39817,39449,38873,39769,38809,39001,39417,39081,38969,39289,38729,38697,39113,38921,38761,39033,38825,39017,38985,38217,38729,38697,38649,38953,38809,38617,38937,39321,38553,38457,39737,38633,38793,38761,38681,38825,39481,38505,38857,39433,38681,39369,39529,38217,39113,39529,38457,39481,39657,38809,39097,39641,38681,39161,39721,38697,39657,40137,38745,39945,40345,39225,40393,40617,39641,40809,40953,40777,41322,41578,40953,41994,41818,41306,42218,42298,41402,42010,42250,41530,41754,41978,41482,41930,41642,40970,41610,41418,40921,41466,40953,40649,40937,40745,40537,40857,40665,40281,40345,40073,39977,40713,40169,40153,40153,39737,40121,40265,39753,39897,40425,39753,39945,40265,39993,40281,40937,40297,40233,40777,40233,41018,40521,39897,40585,40073,40025,40585,39881,40137,40217,39993,39993,40377,39993,39945,40169,39769,39833,40201,39721,39705,39993,39673,39657,39753,39529,39417,39897,39017,39337,39769,39129,39385,39769,39097,39593,39849,38985,39465,39769,38665,39705,39753,38601,39561,39769,38505,39369,39945,38473,39577,40217,38313,39593,40089,39177,39497,39881,38857,39609,39849,38713,39641,40361,38969,39657,39913,38825,39305,39769,39161,39753,39545,39049,39993,40153,39465,40441,40345,40393,40937,41162,40953,41514,41770,41818,42554,42506,42170,43194,42922,42730,43306,43194,43402,43706,43210,42986,43530,42954,43162,43226,42650,42794,42906,42330,42026,42378,42266,42234,42170,42090,41546,42234,41402,41514,41882,41018,41178,41690,40713,41002,41050,40521,40937,41034,40009,40521,40713,40281,40777,40953,40281,40473,41018,39913,40617,41114,40153,41098,41290,40553,41034,41226,40409,41530,41690,40697,41178,41642,40233,41258,41514,40409,41130,40953,40073,40777,40905,39961,40553,40505,39945,40521,40345,39993,40425,40201,39577,40489,39497,40345,40921,39289,40121,40297,39241,39625,40073,38553,39721,39705,38633,39305,39433,38793,39769,39481,39049,39513,39593,38809,39481,39449,39017,39705,39529,39241,39753,39849,39129,39849,39593,39401,39977,39929,39689,40089,40233,39929,40729,40329,40921,41018,40953,41514,42202,41802,42410,43050,42810,42986,43338,43306,43738,43802,43786,43866,44186,43658,43834,43962,43466,43418,43642,43210,43178,43338,42234,42362,43226,41994,42458,42410,41274,41834,42170,40905,41546,42170,41114,41530,41738,40889,41146,41482,40361,41018,41066,40201,40665,40953,40249,40970,41066,40121,40937,40905,39945,40889,40953,40185,40745,40905,40217,40953,40793,40265,40505,40953,40041,40633,40793,40073,40585,40953,40201,40953,40217,40073,40585,40441,40233,40601,39993,40249,40329,39769,39737,39561,39433,39497,39897,39609,39225,39641,38953,38985,39561,38841,39177,39497,39049,39305,39209,38809,39257,39609,38857,39321,39465,38985,38761,39657,38809,39097,39305,38105,39145,39113,38121,39017,39209,38265,38921,39145,38073,39113,39769,38457,41818,41018,40169,40777,40905,39833,40617,41354,40489,41722,42362,41866,42954,43066,42506,43514,43658,43146,44074,43978,43658,43930,43898,43098,43466,43482,42890,43498,43066,42410,42954,42698,42170,42442,42218,41562,41770,41418,41466,41306,41194,41002,41290,40729,40953,40953,40585,40537,40953,40505,40489,40761,40201,40505,40953,40297,40409,41050,40521,40681,40953,40521,40761,41258,40473,40745,41354,40537,40937,40953,40281,40585,40953,39785,40889,40937,39593,40409,40537,39625,40073,40569,38985,39849,39945,38505,39689,39801,38761,39337,39657,38457,39433,39209,38457,39225,39641,38377,39337,39129,38857,39241,39193,38713,39689,39177,38697,39273,39273,39065,39561,39305,38953,39513,38953,38585,39129,39129,38873,39769,38985,39145,39289,38729,39129,39385,38921,38857,39721,39385,39433,39769,39801,40217,40745,40569,40713,41242,41386,41370,42218,42026,42410,42986,43018,43210,43594,43402,43610,43994,43034,43546,44234,42746,43482,43738,42378,43274,43610,42298,43034,43146,41818,42602,42570,41642,41994,42410,40953,41898,41834,41450,41802,41306,41306,41546,40953,40953,41354,40537,40953,40953,39865,40425,40953,39945,40697,40601,39737,40649,40841,39689,40953,41306,40425,40937,41050,39961,40986,41274,40249,41050,41018,40009,40889,40841,40041,40361,40809,39737,40345,40409,39513,40441,40489,39305,39865,39865,39017,39641,39689,39177,39817,39865,39001,39833,39369,39097,39641,39673,39065,39497,39241,38761,39561,39305,38889,39593,38809,38793,39353,38889,38953,39337,39097,38937,39305,38745,39113,39209,39097,39177,39321,38505,39161,39321,38681,38873,39433,38857,39225,39753,39049,39273,40041,39609,39529,40233,39689,40329,41002,40505,40953,42026,41194,41994,42218,41738,42842,43274,42506,43578,43882,42714,43498,44394,43242,44058,44042,42794,43690,43466,42586,43082,43242,41962,42714,43018,41418,42250,42410,41370,41946,42314,40953,41482,41418,40713,41402,41354,40745,41418,41066,40793,41386,40953,40617,41034,41034,40425,40921,40857,40537,40953,40441,40713,41194,40937,40665,41178,40953,40889,41402,40953,41002,41002,40921,40665,41114,40617,40857,40953,40633,40841,40361,39465,40537,39881,39769,40041,40121,39449,39945,39241,39305,39865,39465,39625,39593,39289,39321,39849,39321,39385,40041,39321,39833,39961,39449,39753,39721,39369,39641,39881,39353,39641,39849,39257,39481,39593,39097,39145,39609,38569,39225,39449,38473,39353,39833,38553,39273,39977,38681,39561,40121,38937,40153,40905,39897,40889,41674,41018,41914,42682,41498,42970,43802,42810,43754,44650,43610,44650,44986,43818,44554,45034,43818,44778,45050,43754,44394,44362,43674,43690,43850,42634,43290,43322,42666,43114,42714,41946,42650,42186,41482,42314,41930,41178,42186,41178,41210,41434,41370,40953,41194,40761,40873,41258,41130,40937,41434,40841,40953,41258,40953,40649,41274,40953,40873,41306,40761,40665,41226,40953,40633,40986,40505,40761,40953,39657,40601,40953,39817,40201,40553,39209,40249,40297,38921,39673,40089,38969,39897,39977,38697,39945,39961,39049,39673,40041,38697,39609,40153,38569,39849,40265,38889,40121,40217,38953,39881,39849,39001,39849,39753,38953,39785,39641,38729,39401,39561,39609,39785,38617,39945,39785,38505,39657,40169,38649,39945,40345,39145,40505,40729,39833,40841,41434,40633,41642,42058,41402,42570,42858,42394,43322,43610,43322,43610,43962,42922,44074,43978,43162,44314,43818,43098,43626,43146,42714,43018,42650,42170,42714,42314,41946,42282,41946,41818,41898,41914,41690,42010,41626,41370,41994,41258,41226,41418,41034,40953,41418,40809,40953,41050,40841,40953,41578,40953,40953,41610,41130,41194,41882,40745,41178,41658,40713,41322,41114,40601,41034,41306,40425,41194,41306,39945,40889,40953,39657,40617,40953,39769,40265,40633,39225,40505,40409,39305,40121,40457,39193,39913,40377,39305,39945,40505,39577,40265,40281,39433,39945,40345,39737,40137,40169,39913,40217,40089,39449,40233,40153,39369,40425,39945,39497,40265,39865,39321,40201,39689,39657,39817,39225,39401,39737,39273,39321,39625,39257,39225,39593,39305,39337,39641,39449,39737,40377,40233,40665,41098,41242,41626,42378,42218,42506,43466,43274,43530,44458,43738,44282,44938,44170,44698,45050,44618,44762,45355,44074,45099,45243,45499,43962,43866,42042,42090,42154,41082,41626,42250,41386,41690,42170,41066,42010,42442,41418,42474,42650,41626,42618,42570,41658,42522,42490,41642,42330,42602,40970,42234,42378,41354,41834,42298,41034,41898,41962,41018,41818,41834,40970,41706,41370,40905,41290,41322,40889,40970,41210,40585,40809,40793,40169,40649,40537,40233,40889,40329,40009,40777,40009,39945,40617,40297,39929,40345,39833,39961,40409,39897,39977,40233,39705,40025,40489,39785,39769,40393,39401,39433,40009,39833,39609,40249,39529,39641,40041,39385,39561,39881,39081,39625,40233,39129,39865,40361,39369,39705,39993,38921,39689,40217,38825,39593,40025,38873,39769,40457,39225,40201,40953,39657,40649,41434,40665,41562,42266,41722,42762,43450,42202,43562,43834,43306,44138,44794,44266,45275,45034,44474,45259,45403,44714,45131,45179,44314,44986,44442,44218,44634,44170,43850,44490,43674,43626,43802,43914,43466,43690,43210,43322,43210,42922,42682,42762,42378,42202,42602,42186,42282,42266,41754,41674,41850,41738,41530,41818,41162,41290,41706,41034,41690,41450,40953,41434,41242,40889,41258,40953,41034,41354,41066,41098,41402,40681,40905,40970,40761,40857,40953,40505,40457,40553,40121,40201,40329,39785,39865,40521,39369,39561,39881,39449,39401,40073,39433,39369,39913,38889,39577,39961,39145,39609,39833,38617,39577,39769,38793,39657,40169,38681,39353,39897,38345,39641,39897,38409,39065,39801,38601,39177,39817,38537,39113,39257,38121,39065,39321,38425,38969,38985,38569,38969,38841,38617,39337,39225,38553,39081,39337,38489,39145,39369,38681,39081,38889,38441,38969,38729,38345,38953,38617,38345,39017,38985,38857,39433,39577,39593,40233,40009,40649,40986,41114,41434,42314,42298,42906,43434,43866,44042,44522,44618,44858,45227,44762,44954,45259,44794,44890,45371,44234,44362,44506,43530,44186,44186,43434,43658,43978,42650,43610,43482,42506,42938,43178,42074,42698,43146,41578,42426,42330,41370,41802,42330,41050,41866,42010,40953,41482,41610,40905,41370,41562,40761,41082,41274,40601,41018,41194,40953,41450,41306,40649,41226,40986,40585,41130,41306,40953,41274,40793,40953,41418,39977,40873,40953,39769,40377,40649,39321,40361,40297,39561,40217,40249,39561,40217,40345,39465,39993,40233,39385,40265,39785,39177,40057,39641,39401,40041,39785,39113,39785,39817,39017,39513,39225,39241,39641,39081,39465,39609,39385,39465,39769,39561,39449,39625,39481,39481,39609,39273,39433,39609,39225,39433,39529,39049,39209,39657,39257,39257,39753,39193,39449,40345,38985,39689,40025,39385,39881,40297,39561,40505,41066,40313,41242,42042,41130,42330,42826,42170,43210,43690,43178,43962,44122,43354,44362,44634,43290,44090,44618,43210,44074,44074,42842,43914,43786,42506,43130,43322,42378,42378,42570,41994,42282,42250,41290,42090,42154,41338,41402,41834,41034,41786,41658,40825,41754,41434,40841,41546,40953,41002,41898,41130,40953,41482,41098,41370,41402,40970,40970,41386,41066,40841,41130,40953,40745,40986,40521,40889,40970,40489,40953,40953,40345,40377,40953,40537,40537,40841,40153,40537,40521,39689,40329,40489,39689,40345,40425,39833,39865,40281,39161,40377,40377,39209,40089,40473,38985,40121,40265,40041,40089,39497,39721,40169,39321,39145,39817,38969,39257,39529,38857,39017,39561,38921,39113,39641,38601,39225,39945,38713,39577,39961,39225,40009,40585,39913,40793,41130,40633,41226,42122,40953,42042,42954,41674,42794,43306,42090,43770,43786,42506,43546,43866,43034,43882,43818,42890,43226,43466,42490,43418,43482,42666,42762,42650,42090,42762,42506,41738,42522,42090,41786,42554,41914,41226,42042,41546,41834,42090,41594,41914,41898,41402,41498,41818,41226,41178,41322,41242,40970,41162,40953,40986,41226,41018,40986,41642,41066,41130,41834,41130,41354,41706,41114,41210,41882,40713,41242,41658,40361,40953,41450,40361,40649,41242,39865,40713,40825,39849,40889,40986,40057,40585,40953,39833,40281,41178,39145,39833,40649,39145,40201,40489,39353,40217,40201,39225,39977,40537,39369,40249,40457,39337,40073,40345,39305,40281,40313,39385,40281,40217,39465,40281,40073,39433,40025,39897,39257,40553,39625,39113,40089,39961,40121,40649,40377,40953,41290,41322,41562,42570,42218,42570,42986,42906,43530,43946,43738,43834,46171,43626,43658,43290,41610,42250,42762,41178,42506,42778,41802,42762,43178,42426,43658,43306,42842,43834,43786,42954,43562,43162,42666,43162,43082,42634,43130,42426,42266,42762,42442,41914,42522,41530,41498,42042,41386,41754,41866,41418,41146,41930,41402,41178,41754,41386,41434,41562,41018,41162,41642,41418,41226,41738,41210,41050,41690,40953,41066,41562,40921,40953,41402,40553,41162,41162,40217,40681,41274,39769,40665,40825,39529,40457,40857,40169,40729,39785,40809,40297,39753,40537,40457,40153,40473,40713,39673,40905,40185,39641,40553,40153,39833,40201,39753,40089,40409,40073,40185,40393,40073,40297,40537,40041,40249,40105,39897,39753,40121,39993,39785,40073,39449,39897,40073,39849,39881,40361,39833,40361,40729,40777,40649,41306,40953,41370,41930,41274,42250,43114,42394,43306,43914,43018,44298,44906,43498,44314,45211,43722,44858,45259,43674,44714,44778,43674,44570,44954,43418,44010,44314,43098,44122,43818,42602,43562,43866,42842,43578,43690,42730,43194,43162,42074,43146,43034,41930,42538,41818,42650,42442,41194,41978,42298,40953,41754,42186,40633,41546,41962,40986,41562,42074,40905,41882,42042,41114,41706,42218,41178,41610,41818,41226,41690,42042,41034,41434,41690,41098,41658,41146,40777,41450,41018,40665,41162,41018,40361,41130,40953,40841,41178,40745,40809,40953,40889,40233,40569,40297,40233,40345,39977,39897,40281,39897,40281,40377,39753,39913,40617,39881,39769,40681,39993,39913,40617,39705,39993,40809,39433,39961,40393,39177,40569,40345,39337,40409,40569,39369,40073,40729,39193,40329,40489,39433,40329,40537,39369,39961,40505,38969,40009,40345,39193,39977,40745,39577,40649,41258,40089,41370,41866,40953,42106,42442,41946,42986,43306,42890,43754,44010,43562,44138,44426,44010,44426,44298,43962,44570,44394,44202,44570,43866,44026,43930,43498,43658,43994,43674,43610,43866,43370,43274,43306,43050,42858,43114,42442,42506,43066,42218,42170,42394,42090,42074,42490,41786,41802,42378,41674,41610,41834,40953,41418,41914,40953,41498,41786,40953,41546,41786,40953,41466,42170,40953,41914,42122,40953,41898,41930,41498,41658,41146,41050,41306,40665,40953,41130,40889,40633,41274,40265,40665,40953,40201,40745,40697,39737,40585,40505,39609,40345,40585,39561,40665,40889,39689,40185,40697,39369,39977,40841,39129,40137,40729,39305,40009,40169,39049,40169,40441,39193,40281,40505,39497,40201,40249,39785,40377,40121,39305,39817,40361,39625,40265,40297,39561,40105,39913,39385,40137,39721,39449,40121,39673,39305,40377,39609,40185,39993,39657,39865,40121,40265,39961,40761,40473,40473,41066,40777,41146,41834,41786,42170,42810,42970,42922,43994,43610,43898,44602,44186,44058,45147,44362,44474,45387,44186,44346,44618,43626,44154,44618,43082,43754,43898,42378,43178,43594,42154,42906,43450,42314,42938,43226,41962,42586,42826,41626,42154,42986,41146,42410,42282,41050,41834,41802,40601,41610,41642,40553,41386,41066,40633,40953,41098,40217,40953,40970,40457,41546,41178,40457,41242,40970,40393,41194,40953,40953,41530,40745,40761,41050,40793,40665,40953,40873,40953,41306,40953,40729,40953,40681,40841,40953,40649,40521,40953,40281,40265,40986,40505,40889,40409,39721,40265,40153,39641,40457,40009,39705,40457,40345,40041,40633,39993,39945,40633,40409,40265,40329,40201,39865,40425,39993,39961,40153,39753,40169,40377,40153,39993,40505,39945,40249,40665,39993,40249,40986,40121,40857,41370,40377,41226,42186,41402,42154,42426,41898,42650,43722,42330,43162,44314,42586,44042,44170,42938,43930,44314,43050,43946,44186,42666,43562,43978,42906,43514,43882,42298,43482,43690,42378,43194,43626,42314,42650,42698,41930,42762,42570,41754,42266,42634,41962,42266,42154,41258,42202,42298,41578,41962,41370,40953,41850,41546,41018,41898,41370,41146,41514,41274,41178,41354,40953,40953,41194,40841,40953,41402,41258,40857,41226,40713,40953,40953,40537,40617,40986,40185,40569,40873,40361,40585,40953,40089,40377,40761,39705,40777,40617,39833,40521,40953,39529,40473,40841,40073,40585,40953,39865,40857,41242,40089,40745,40889,39545,40377,40873,39145,40329,40681,39481,40265,40185,39081,39593,40121,39401,39449,40185,39097,40441,40073,39481,39769,40073,39865,40889,40649,43546,43018,41514,41450,42170,41098,42090,42698,41690,43034,43338,42730,43610,44202,43658,44522,44986,43786,44634,44778,43690,44330,44362,43482,44346,44426,43402,43930,44202,43082,43850,43674,43018,43690,43210,42906,43082,42506,41994,42618,42170,41962,41898,41210,41610,41626,41258,41274,41530,41098,41178,41578,41306,41242,41706,41466,41178,41802,41274,41818,41610,41386,41514,42458,41482,41722,42058,41434,41498,42266,40889,41018,41882,40697,41018,41610,40649,41034,41402,40153,40713,41018,40009,40617,40953,39641,40505,41002,39737,40953,40841,39785,40953,41018,39657,40681,40953,39577,40617,40713,39625,40953,40713,39993,40681,40489,39913,40425,40777,39881,40537,40729,40153,40553,40617,39993,40841,40777,40649,40841,40233,40249,40953,40537,40745,41434,41002,41002,41674,41706,41642,42330,42538,42474,43434,43226,43226,44010,43706,43722,44138,43994,44650,44778,44634,44634,44970,44490,44554,45387,44330,44858,45034,44202,44522,44698,43914,44298,44586,43034,43834,44090,42970,43578,43802,42202,43354,43706,42250,42970,42730,42618,42890,42282,42426,42138,41802,42042,42426,41802,41786,42682,41754,41914,42538,42010,41866,42186,41530,41946,42666,41450,42042,42890,41306,42122,42426,41306,42042,42570,41322,41962,42298,40953,41450,42154,40889,41578,41994,40249,41210,41786,40361,41226,41146,40361,41066,41178,40361,41178,41258,40409,40953,40905,40345,40953,41082,40041,40953,40713,40409,41098,40953,40233,41306,40713,40345,41082,40905,40489,41210,40953,40809,40953,40713,40569,40953,40521,40473,41002,40409,40249,40633,40505,40409,40649,40649,40553,40729,40793,40953,41226,40970,41322,42122,41690,41882,42634,42730,42762,43866,43082,44010,44378,43786,44586,45131,44250,45018,45259,44490,45163,45643,44538,45371,45563,43994,44618,45147,43322,44298,44698,43514,44042,44570,42954,43770,43962,42650,43418,43978,42282,42858,43210,41962,42986,43066,41786,42778,42554,41994,42554,42266,41322,42346,42378,41770,42378,41946,41738,42154,41866,41498,42058,41994,41738,42218,41866,41706,42298,41674,41802,42314,41482,41418,42074,41498,41354,41738,41514,41370,42170,41130,41578,41562,40953,41434,41370,40729,41290,41018,40793,41594,40953,40553,40953,40953,40665,41098,40729,40857,41226,40953,40937,41402,40905,41066,41610,40681,41002,41546,40953,41402,41418,41242,40713,41370,40809,40986,41370,40889,40953,41450,40921,40857,41578,40617,41050,40953,40281,40953,41578,40601,41434,42506,41098,42154,43034,41818,43418,43930,42634,44074,44618,43866,44522,45403,44138,45227,46043,44458,45643,45755,44570,45387,45787,44522,45355,45723,44362,45259,45099,44314,44746,44506,44074,44026,44042,43146,44010,43402,42842,43306,43210,42586,43290,42538,42458,42970,42506,41994,42666,42170,42346,42314,42330,42074,42298,42202,41994,42330,41882,41898,42650,41994,42298,42346,42202,42378,42826,42458,42458,43274,42474,42298,43162,41962,42442,43018,42090,41994,42058,41114,41786,42346,40953,41466,41930,40809,41450,41594,40633,41226,41706,40361,41370,41754,40393,40986,41914,40153,41114,41162,40217,40793,41530,40217,40905,41290,39945,40889,41162,40281,41354,41498,40681,41306,41178,40681,40953,40953,40297,41898,40489,40953,41466,40249,40953,41322,40521,41290,41882,40953,42394,43226,42394,43370,44218,43370,44378,45099,44330,45675,46091,45291,46171,46491,45483,46475,46523,45643,46155,46315,45563,45979,45755,45050,45563,45291,44826,45355,44730,44122,44778,44186,43914,44314,43882,43834,43930,43450,43626,43738,43354,43242,43530,43226,43322,43450,42490,42394,43098,42634,42250,42570,42170,42554,42682,42218,42826,43066,42410,42538,43098,42234,42570,43034,41674,42202,42522,41626,41786,42122,40953,41514,42234,40921,41610,41834,40953,41370,41562,40457,41354,41930,40553,41258,41354,40425,40857,41818,40361,41274,41466,40489,41130,41354,40761,41018,41130,40249,40986,41178,40489,41018,41066,40265,40857,40986,40009,40937,40729,40089,40953,40633,40025,40793,40281,39961,40921,40073,39945,40489,40121,40025,40857,40009,40569,40393,40137,39977,40697,40041,39913,40249,40345,39625,40153,39769,39513,40201,39865,39785,40409,40025,40233,41066,40105,40553,41354,40841,42186,42410,41770,42778,43994,43242,44074,45227,44426,45275,46123,47323,46667,45579,45034,44890,43466,43770,44634,43674,44074,44426,43402,44250,45018,44330,44970,45659,44250,45099,45163,44586,44746,45179,44266,45099,44986,43482,43866,44090,42698,43498,43562,42458,43034,43114,41866,42154,42602,41626,42138,42314,41674,42346,42522,41450,42010,42394,41882,42554,42314,41818,42442,42394,42138,42410,42218,42026,42378,42138,41978,41802,41386,41306,41418,41002,41114,41242,40713,40889,40953,40857,40505,40953,40457,40393,40873,40329,40345,40649,40233,40233,40633,40121,40409,40953,40121,40409,40681,39689,40409,41066,39865,40457,40921,40121,40633,40761,39609,40457,40793,40089,40665,40953,39865,40505,41258,39849,40713,40921,39465,40473,40953,39817,40377,40986,39705,40377,40697,39449,40217,40793,39609,40249,40377,39481,40073,40345,39417,39977,40041,39625,40297,40393,40137,40537,40841,40665,41754,41482,41754,42634,42986,43370,43850,43962,44314,45099,45018,45115,45755,45595,45227,45723,45499,45579,45899,45355,45339,45659,45067,44570,45163,44122,44394,44650,43674,43562,44042,43658,43594,43978,43354,43466,43290,42842,43290,42714,42650,42858,42682,42490,42810,42346,42170,41962,41914,42074,42186,41866,41562,42074,41546,41386,41722,41258,41418,41962,41482,41450,41898,41306,41450,42154,41066,41418,41738,41002,41306,41802,40953,41306,41802,40601,41114,41402,40585,40953,41386,40169,40713,41162,39945,40569,40633,39353,40169,40473,39481,40345,40617,39321,39897,40521,39097,40137,40105,39465,39753,39849,39049,39865,40217,39241,39769,39753,39113,40201,39929,39065,39817,39625,39513,40153,39577,39209,39977,39689,39193,39865,39593,39753,39945,39705,39401,39689,39337,39401,39705,39497,39081,39705,39241,39049,39321,38857,39113,39529,39193,39337,39753,39225,39769,40409,40089,40361,41146,40953,41258,41930,41002,42618,42698,42170,43130,43562,42970,43738,44234,42858,43530,43802,43082,43706,44218,42778,43274,43306,42442,42954,42810,41850,42554,43210,41418,42378,42602,41194,41802,42090,41130,41610,41690,40953,41546,41322,40809,41354,41242,40553,40953,40953,40489,41130,40953,40521,41018,40585,40345,40953,40425,40953,41066,39769,40713,40873,39785,40681,40649,39833,40809,40953,39705,40617,40857,39737,40761,40713,39753,40521,40601,39593,40281,40425,39897,40137,40201,39593,40393,40217,39721,40249,40073,39481,40361,39785,39497,40249,39353,39673,40281,39433,39433,39769,39465,39561,39369,39193,39257,39641,39225,39001,39113,39161,39001,39129,39113,38873,39705,39017,39065,39785,39177,39177,39817,39065,39001,39449,38377,39001,40041,38697,39257,39097,38537,39609,39849,39257,39993,40889,39849,40889,41386,40297,41578,42394,41402,42154,42698,41658,42730,43242,42042,42826,43370,42250,43562,43402,42586,43338,43434,42650,43098,42810,41962,42554,42426,41690,42154,42218,41402,41930,41226,41066,41530,41018,40857,41434,41162,40793,41050,41194,40921,41114,40953,40505,40921,40761,40953,41402,40745,40857,40986,41050,40953,41482,40921,40953,41434,41098,40953,41402,41130,41018,41402,40761,40713,40953,40601,40953,41402,40249,40473,40970,40361,40457,40953,39865,40153,40953,39865,40425,40953,39577,40201,40841,39385,40409,40921,39257,40041,40345,40137,40393,39929,39897,40169,39241,39593,39833,39225,39465,39993,39017,39513,39721,38937,39625,39993,38841,39257,40041,39081,39993,40249,39113,39881,40585,39753,40249,40777,40121,41114,41578,40393,42026,42346,41178,42474,43178,42122,42810,43242,42650,43274,43738,42778,43466,43946,42826,43418,43530,43002,43498,42778,42378,42938,42970,41994,43082,42218,41866,42026,42090,41546,42074,41482,41450,41610,41082,40953,41402,41114,41034,41098,40857,40937,41114,40986,41034,41226,40953,40761,40953,40953,40953,41194,40857,40953,41018,40809,41114,41130,40649,40857,41306,40953,41098,41098,40553,40953,41146,40137,40809,41178,40329,40921,40953,39673,40537,40953,39913,40169,40921,39609,40425,40457,39449,40233,40553,39225,40265,40393,39113,39817,40345,39209,39865,40201,39401,39961,40169,39353,39385,39977,39305,39961,40041,39305,40585,40201,39465,40409,40249,39641,40281,40089,39849,40377,39769,40025,40457,40329,40233,40777,40521,40745,41370,41146,41450,41994,41866,42090,43066,42410,43290,43562,43274,43514,44122,43450,43914,44170,44058,43594,43066,41354,41658,41562,40601,41322,41530,40761,41626,41834,41194,41946,42266,41866,42570,42794,41962,42650,43114,41962,42442,42682,41994,42410,41994,41498,41898,41754,41146,41674,41050,40953,41610,40953,40937,41306,40857,40921,41306,40857,40970,41386,40953,41290,41162,40986,41226,41018,40953,40970,41450,40889,40986,41034,40953,40841,41402,40665,40953,41066,40681,40777,40953,40105,40857,40761,40281,40953,40745,39913,40201,40537,39481,40601,40505,39753,40009,40329,38969,40169,40393,39209,39897,40457,39305,40137,40713,38921,39945,40537,39129,40025,40409,39273,40073,40329,39545,40121,40153,39625,40361,40489,39865,40281,40377,39753,40649,40361,39737,40617,40953,40297,41098,41146,40953,41754,41562,41818,42458,42666,42554,43274,43066,43674,44490,43914,44586,44538,44170,44698,44986,44714,44650,44522,44298,44602,44858,44234,44362,45211,44122,44202,44442,43482,43882,44122,43290,43450,43818,43066,43434,43834,42794,43226,43338,42122,42794,42810,42122,42330,43050,41802,42378,42762,41354,42394,42682,41402,42938,42298,41914,42442,41578,42106,42538,41834,41834,42250,41786,41882,42186,41674,41962,42202,41322,41610,42042,40809,41466,41962,40777,41306,41514,40665,40953,41866,40297,40953,41882,40153,40937,41162,39817,40729,41050,39913,40601,40505,39833,40633,40889,39961,40425,40601,39945,40377,40761,39705,40281,40521,40121,40601,40697,39865,40601,40377,39993,40489,40297,39737,40649,40681,40217,40569,40345,39977,40665,40217,40473,40905,40425,40585,40777,40521,40297,40681,40249,40425,40409,40329,40121,40681,40089,40153,40585,40233,40105,40937,40457,40841,41418,40953,41290,42394,41882,42266,43066,42442,43498,44458,44042,44810,45291,44826,45131,45995,45259,46011,46235,45675,46299,46715,44954,45739,46107,44490,45067,45691,44218,45067,45323,43706,44634,44602,43338,44490,44634,43146,44298,44058,43146,43738,43786,43050,43594,43482,42730,43770,42922,42330,43178,42810,42170,42762,42602,42538,43018,42602,41818,42682,42426,41994,42458,41994,41962,42330,42314,42170,42394,41802,41706,42010,41754,41498,42058,42026,41738,41962,41450,41802,41642,41258,41402,41434,40665,41098,40953,40329,41306,40729,40409,41002,40889,40953,40953,40921,40729,40953,40953,40729,40986,40729,40649,40953,40393,40873,40761,40457,40553,40873,40521,40665,40953,40921,40713,41034,40521,40633,40953,40489,40601,40889,39753,40201,40953,39657,40201,40441,39657,40329,40489,39769,40649,40953,39705,40361,40617,39561,40121,40905,39577,40489,40265,39337,40345,40473,39561,40137,40537,39369,40713,41002,39769,40537,40873,40409,40953,41418,40953,41546,42330,41882,42538,43178,42842,44330,44330,43930,45083,45355,45163,45723,45643,45275,46507,45851,45627,46219,45259,45323,45595,45323,45259,45131,44378,44554,44762,44106,43978,43978,43690,43674,43898,43578,43450,43786,43194,43178,43434,42826,42570,43274,42538,42858,43482,42490,42682,43082,41930,42586,42954,42202,42666,43178,42122,42314,42554,41770,42394,42458,41178,42090,42666,41290,42650,42538,41498,42538,43018,41562,42378,42762,41242,42538,42426,41370,42090,42618,41114,41930,41786,40905,41290,41386,40873,41130,41322,40553,41322,40425,41178,41610,40121,40633,41306,39881,40905,40953,39673,40553,40953,39865,40313,40889,40009,41114,41002,39881,40986,40986,40585,40953,41098,40585,41130,40953,40249,41050,41146,40585,40986,41178,40457,41178,40953,40537,40953,40777,40409,40970,40809,40585,41226,40953,41098,41738,41386,41802,42154,42074,42458,43418,43274,43770,44154,44442,44810,45403,45563,45643,46123,45835,46187,46667,45899,45883,46603,45259,45483,46027,44170,44698,45211,43978,44714,44474,43162,43674,44074,42858,43882,43962,42282,43034,43514,42058,42906,43354,41738,42378,43210,41290,42330,42858,41370,41914,42522,40953,42042,42426,40953,41866,42330,41418,42170,42570,41242,42186,42346,41578,42154,41930,40537,39833,39689,39065,38665,37881,28246,272,208,336,400,320,272,288,14691,63231,63391,63583,63727,63791,63471,63583,63263,63343,63839,63951,63855,63711,63327,63551,63423,63407,63743,63679,63791,63407,63727,63455,63391,63647,63247,63343,63471,63295,63295,63551,63839,63343,63247,63951,63407,64047,63679,63455,63727,63263,63807,64079,63807,63167,63247,63711,63199,63295,63423,63919,63887,63423,63775,63263,63327,63343,63423,63519,63327,63375,63519,63327,63407,63935,63615,63647,63615,63647,63439,63343,63295,63311,63903,63503,63599,63343,63887,63951,63279,63583,63679,63215,63503,63279,63215,63903,63855,63631,63375,63327,63791,63375,63903,63295,63567,63567,63631,63263,63567,63567,63391,63375,63887,63391,63295,63471,63679,63711,63311,63759,63647,63695,63903,63327,63375,63215,63727,63327,63887,63263,63215,63727,63215,63391,63471,63279,63455,63535,63903,63503,63535,63327,63727,63391,63423,63567,63519,63567,63391,63423,63231,63375,63807,63551,63503,63199,63551,63599,63455,63711,63807,63551,63311,63919,63647,63359,63471,63631,63583,63455,63215,63919,63375,63439,63407,63455,63631,63183,63711,63215,63567,63279,63519,63407,63695,63567,63279,63103,63359,63599,63199,63199,63519,63407,63407,63455,63695,63247,63567,63439,63631,63327,63263,63407,63455,63263,63311,63343,63775,63647,63679,63215,63503,63439,63295,63567,63183,63311,63823,63583,63695,63807,63279,63663,63759,63439,63519,63375,63295,63503,63791,63503,63983,63375,63311,63807,63391,64063,63263,63631,63647,63887,63647,63775,63551,63423,63711,63343,63663,63375,63407,63311,63071,63247,62975,63103,63599,62991,29543,208,208,224,160,352,192,256,208,304,288,336,224,160,208,144,224,272,208,256,288,176,144,176,288,272,224,176,272,224,192,192,272,58718,63295,63407,63631,63679,63407,63263,63711,63855,63423,63551,63839,63775,63263,63935,63727,63455,63327,63599,63647,63679,63631,63343,63903,63503,63343,63647,63551,63439,63407,63311,63679,63471,63647,63455,63775,63327,63567,63407,63631,63391,63375,63663,63583,63679,63567,63759,63951,63567,63791,63343,63775,63519,63423,63519,63967,63583,63519,63455,63391,63983,63711,63711,63727,63551,63407,63567,63247,63423,63343,63503,63215,63855,63391,63391,63503,63439,